6981, 1503609785514
6980, 1503609785481
6979, 1503609785448
6978, 1503609785415
6977, 1503609785382
6976, 1503609785349
6975, 1503609785316
6974, 1503609785283
6973, 1503609785250
6972, 1503609785217
6971, 1503609785184
6970, 1503609785151
6969, 1503609785118
6968, 1503609785085
6967, 1503609785052
6966, 1503609785019
6965, 1503609784986
6964, 1503609784953
6963, 1503609784920
6962, 1503609784887
6961, 1503609784854
6960, 1503609784821
6959, 1503609784788
6958, 1503609784755
6957, 1503609784722
6956, 1503609784689
6955, 1503609784656
6954, 1503609784623
6953, 1503609784590
6952, 1503609784557
6951, 1503609784524
6950, 1503609784491
6949, 1503609784458
6948, 1503609784425
6947, 1503609784392
6946, 1503609784359
6945, 1503609784326
6944, 1503609784293
6943, 1503609784260
6942, 1503609784227
6941, 1503609784194
6940, 1503609784161
6939, 1503609784128
6938, 1503609784095
6937, 1503609784062
6936, 1503609784029
6935, 1503609783996
6934, 1503609783963
6933, 1503609783930
6932, 1503609783897
6931, 1503609783864
6930, 1503609783831
6929, 1503609783798
6928, 1503609783765
6927, 1503609783732
6926, 1503609783699
6925, 1503609783666
6924, 1503609783633
6923, 1503609783600
6922, 1503609783567
6921, 1503609783534
6920, 1503609783501
6919, 1503609783468
6918, 1503609783435
6917, 1503609783402
6916, 1503609783369
6915, 1503609783336
6914, 1503609783303
6913, 1503609783270
6912, 1503609783237
6911, 1503609783204
6910, 1503609783171
6909, 1503609783138
6908, 1503609783105
6907, 1503609783072
6906, 1503609783039
6905, 1503609783006
6904, 1503609782973
6903, 1503609782940
6902, 1503609782907
6901, 1503609782874
6900, 1503609782841
6899, 1503609782808
6898, 1503609782775
6897, 1503609782742
6896, 1503609782709
6895, 1503609782676
6894, 1503609782643
6893, 1503609782610
6892, 1503609782577
6891, 1503609782544
6890, 1503609782511
6889, 1503609782478
6888, 1503609782445
6887, 1503609782412
6886, 1503609782379
6885, 1503609782346
6884, 1503609782313
6883, 1503609782280
6882, 1503609782247
6881, 1503609782214
6880, 1503609782181
6879, 1503609782148
6878, 1503609782115
6877, 1503609782082
6876, 1503609782049
6875, 1503609782016
6874, 1503609781983
6873, 1503609781950
6872, 1503609781917
6871, 1503609781884
6870, 1503609781851
6869, 1503609781818
6868, 1503609781785
6867, 1503609781752
6866, 1503609781719
6865, 1503609781686
6864, 1503609781653
6863, 1503609781620
6862, 1503609781587
6861, 1503609781554
6860, 1503609781521
6859, 1503609781488
6858, 1503609781455
6857, 1503609781422
6856, 1503609781389
6855, 1503609781356
6854, 1503609781323
6853, 1503609781290
6852, 1503609781257
6851, 1503609781224
6850, 1503609781191
6849, 1503609781158
6848, 1503609781125
6847, 1503609781092
6846, 1503609781059
6845, 1503609781026
6844, 1503609780993
6843, 1503609780960
6842, 1503609780927
6841, 1503609780894
6840, 1503609780861
6839, 1503609780828
6838, 1503609780795
6837, 1503609780762
6836, 1503609780729
6835, 1503609780696
6834, 1503609780663
6833, 1503609780630
6832, 1503609780597
6831, 1503609780564
6830, 1503609780531
6829, 1503609780498
6828, 1503609780465
6827, 1503609780432
6826, 1503609780399
6825, 1503609780366
6824, 1503609780333
6823, 1503609780300
6822, 1503609780267
6821, 1503609780234
6820, 1503609780201
6819, 1503609780168
6818, 1503609780135
6817, 1503609780102
6816, 1503609780069
6815, 1503609780036
6814, 1503609780003
6813, 1503609779970
6812, 1503609779937
6811, 1503609779904
6810, 1503609779871
6809, 1503609779838
6808, 1503609779805
6807, 1503609779772
6806, 1503609779739
6805, 1503609779706
6804, 1503609779673
6803, 1503609779640
6802, 1503609779607
6801, 1503609779574
6800, 1503609779541
6799, 1503609779508
6798, 1503609779475
6797, 1503609779442
6796, 1503609779409
6795, 1503609779376
6794, 1503609779343
6793, 1503609779310
6792, 1503609779277
6791, 1503609779244
6790, 1503609779211
6789, 1503609779178
6788, 1503609779145
6787, 1503609779112
6786, 1503609779079
6785, 1503609779046
6784, 1503609779013
6783, 1503609778980
6782, 1503609778947
6781, 1503609778914
6780, 1503609778881
6779, 1503609778848
6778, 1503609778815
6777, 1503609778782
6776, 1503609778749
6775, 1503609778716
6774, 1503609778683
6773, 1503609778650
6772, 1503609778617
6771, 1503609778584
6770, 1503609778551
6769, 1503609778518
6768, 1503609778485
6767, 1503609778452
6766, 1503609778419
6765, 1503609778386
6764, 1503609778353
6763, 1503609778320
6762, 1503609778287
6761, 1503609778254
6760, 1503609778221
6759, 1503609778188
6758, 1503609778155
6757, 1503609778122
6756, 1503609778089
6755, 1503609778056
6754, 1503609778023
6753, 1503609777990
6752, 1503609777957
6751, 1503609777924
6750, 1503609777891
6749, 1503609777858
6748, 1503609777825
6747, 1503609777792
6746, 1503609777759
6745, 1503609777726
6744, 1503609777693
6743, 1503609777660
6742, 1503609777627
6741, 1503609777594
6740, 1503609777561
6739, 1503609777528
6738, 1503609777495
6737, 1503609777462
6736, 1503609777429
6735, 1503609777396
6734, 1503609777363
6733, 1503609777330
6732, 1503609777297
6731, 1503609777264
6730, 1503609777231
6729, 1503609777198
6728, 1503609777165
6727, 1503609777132
6726, 1503609777099
6725, 1503609777066
6724, 1503609777033
6723, 1503609777000
6722, 1503609776967
6721, 1503609776934
6720, 1503609776901
6719, 1503609776868
6718, 1503609776835
6717, 1503609776802
6716, 1503609776769
6715, 1503609776736
6714, 1503609776703
6713, 1503609776670
6712, 1503609776637
6711, 1503609776604
6710, 1503609776571
6709, 1503609776538
6708, 1503609776505
6707, 1503609776472
6706, 1503609776439
6705, 1503609776406
6704, 1503609776373
6703, 1503609776340
6702, 1503609776307
6701, 1503609776274
6700, 1503609776241
6699, 1503609776208
6698, 1503609776175
6697, 1503609776142
6696, 1503609776109
6695, 1503609776076
6694, 1503609776043
6693, 1503609776010
6692, 1503609775977
6691, 1503609775944
6690, 1503609775911
6689, 1503609775878
6688, 1503609775845
6687, 1503609775812
6686, 1503609775779
6685, 1503609775746
6684, 1503609775713
6683, 1503609775680
6682, 1503609775647
6681, 1503609775614
6680, 1503609775581
6679, 1503609775548
6678, 1503609775515
6677, 1503609775482
6676, 1503609775449
6675, 1503609775416
6674, 1503609775383
6673, 1503609775350
6672, 1503609775317
6671, 1503609775284
6670, 1503609775251
6669, 1503609775218
6668, 1503609775185
6667, 1503609775152
6666, 1503609775119
6665, 1503609775086
6664, 1503609775053
6663, 1503609775020
6662, 1503609774987
6661, 1503609774954
6660, 1503609774921
6659, 1503609774888
6658, 1503609774855
6657, 1503609774822
6656, 1503609774789
6655, 1503609774756
6654, 1503609774723
6653, 1503609774690
6652, 1503609774657
6651, 1503609774624
6650, 1503609774591
6649, 1503609774558
6648, 1503609774525
6647, 1503609774492
6646, 1503609774459
6645, 1503609774426
6644, 1503609774393
6643, 1503609774360
6642, 1503609774327
6641, 1503609774294
6640, 1503609774261
6639, 1503609774228
6638, 1503609774195
6637, 1503609774162
6636, 1503609774129
6635, 1503609774096
6634, 1503609774063
6633, 1503609774030
6632, 1503609773997
6631, 1503609773964
6630, 1503609773931
6629, 1503609773898
6628, 1503609773865
6627, 1503609773832
6626, 1503609773799
6625, 1503609773766
6624, 1503609773733
6623, 1503609773700
6622, 1503609773667
6621, 1503609773634
6620, 1503609773601
6619, 1503609773568
6618, 1503609773535
6617, 1503609773502
6616, 1503609773469
6615, 1503609773436
6614, 1503609773403
6613, 1503609773370
6612, 1503609773337
6611, 1503609773304
6610, 1503609773271
6609, 1503609773238
6608, 1503609773205
6607, 1503609773172
6606, 1503609773139
6605, 1503609773106
6604, 1503609773073
6603, 1503609773040
6602, 1503609773007
6601, 1503609772974
6600, 1503609772941
6599, 1503609772908
6598, 1503609772875
6597, 1503609772842
6596, 1503609772809
6595, 1503609772776
6594, 1503609772743
6593, 1503609772710
6592, 1503609772677
6591, 1503609772644
6590, 1503609772611
6589, 1503609772578
6588, 1503609772545
6587, 1503609772512
6586, 1503609772479
6585, 1503609772446
6584, 1503609772413
6583, 1503609772380
6582, 1503609772347
6581, 1503609772314
6580, 1503609772281
6579, 1503609772248
6578, 1503609772215
6577, 1503609772182
6576, 1503609772149
6575, 1503609772116
6574, 1503609772083
6573, 1503609772050
6572, 1503609772017
6571, 1503609771984
6570, 1503609771951
6569, 1503609771918
6568, 1503609771885
6567, 1503609771852
6566, 1503609771819
6565, 1503609771786
6564, 1503609771753
6563, 1503609771720
6562, 1503609771687
6561, 1503609771654
6560, 1503609771621
6559, 1503609771588
6558, 1503609771555
6557, 1503609771522
6556, 1503609771489
6555, 1503609771456
6554, 1503609771423
6553, 1503609771390
6552, 1503609771357
6551, 1503609771324
6550, 1503609771291
6549, 1503609771258
6548, 1503609771225
6547, 1503609771192
6546, 1503609771159
6545, 1503609771126
6544, 1503609771093
6543, 1503609771060
6542, 1503609771027
6541, 1503609770994
6540, 1503609770961
6539, 1503609770928
6538, 1503609770895
6537, 1503609770862
6536, 1503609770829
6535, 1503609770796
6534, 1503609770763
6533, 1503609770730
6532, 1503609770697
6531, 1503609770664
6530, 1503609770631
6529, 1503609770598
6528, 1503609770565
6527, 1503609770532
6526, 1503609770499
6525, 1503609770466
6524, 1503609770433
6523, 1503609770400
6522, 1503609770367
6521, 1503609770334
6520, 1503609770301
6519, 1503609770268
6518, 1503609770235
6517, 1503609770202
6516, 1503609770169
6515, 1503609770136
6514, 1503609770103
6513, 1503609770070
6512, 1503609770037
6511, 1503609770004
6510, 1503609769971
6509, 1503609769938
6508, 1503609769905
6507, 1503609769872
6506, 1503609769839
6505, 1503609769806
6504, 1503609769773
6503, 1503609769740
6502, 1503609769707
6501, 1503609769674
6500, 1503609769641
6499, 1503609769608
6498, 1503609769575
6497, 1503609769542
6496, 1503609769509
6495, 1503609769476
6494, 1503609769443
6493, 1503609769410
6492, 1503609769377
6491, 1503609769344
6490, 1503609769311
6489, 1503609769278
6488, 1503609769245
6487, 1503609769212
6486, 1503609769179
6485, 1503609769146
6484, 1503609769113
6483, 1503609769080
6482, 1503609769047
6481, 1503609769014
6480, 1503609768981
6479, 1503609768948
6478, 1503609768915
6477, 1503609768882
6476, 1503609768849
6475, 1503609768816
6474, 1503609768783
6473, 1503609768750
6472, 1503609768717
6471, 1503609768684
6470, 1503609768651
6469, 1503609768618
6468, 1503609768585
6467, 1503609768552
6466, 1503609768519
6465, 1503609768486
6464, 1503609768453
6463, 1503609768420
6462, 1503609768387
6461, 1503609768354
6460, 1503609768321
6459, 1503609768288
6458, 1503609768255
6457, 1503609768222
6456, 1503609768189
6455, 1503609768156
6454, 1503609768123
6453, 1503609768090
6452, 1503609768057
6451, 1503609768024
6450, 1503609767991
6449, 1503609767958
6448, 1503609767925
6447, 1503609767892
6446, 1503609767859
6445, 1503609767826
6444, 1503609767793
6443, 1503609767760
6442, 1503609767727
6441, 1503609767694
6440, 1503609767661
6439, 1503609767628
6438, 1503609767595
6437, 1503609767562
6436, 1503609767529
6435, 1503609767496
6434, 1503609767463
6433, 1503609767430
6432, 1503609767397
6431, 1503609767364
6430, 1503609767331
6429, 1503609767298
6428, 1503609767265
6427, 1503609767232
6426, 1503609767199
6425, 1503609767166
6424, 1503609767133
6423, 1503609767100
6422, 1503609767067
6421, 1503609767034
6420, 1503609767001
6419, 1503609766968
6418, 1503609766935
6417, 1503609766902
6416, 1503609766869
6415, 1503609766836
6414, 1503609766803
6413, 1503609766770
6412, 1503609766737
6411, 1503609766704
6410, 1503609766671
6409, 1503609766638
6408, 1503609766605
6407, 1503609766572
6406, 1503609766539
6405, 1503609766506
6404, 1503609766473
6403, 1503609766440
6402, 1503609766407
6401, 1503609766374
6400, 1503609766341
6399, 1503609766308
6398, 1503609766275
6397, 1503609766242
6396, 1503609766209
6395, 1503609766176
6394, 1503609766143
6393, 1503609766110
6392, 1503609766077
6391, 1503609766044
6390, 1503609766011
6389, 1503609765978
6388, 1503609765945
6387, 1503609765912
6386, 1503609765879
6385, 1503609765846
6384, 1503609765813
6383, 1503609765780
6382, 1503609765747
6381, 1503609765714
6380, 1503609765681
6379, 1503609765648
6378, 1503609765615
6377, 1503609765582
6376, 1503609765549
6375, 1503609765516
6374, 1503609765483
6373, 1503609765450
6372, 1503609765417
6371, 1503609765384
6370, 1503609765351
6369, 1503609765318
6368, 1503609765285
6367, 1503609765252
6366, 1503609765219
6365, 1503609765186
6364, 1503609765153
6363, 1503609765120
6362, 1503609765087
6361, 1503609765054
6360, 1503609765021
6359, 1503609764988
6358, 1503609764955
6357, 1503609764922
6356, 1503609764889
6355, 1503609764856
6354, 1503609764823
6353, 1503609764790
6352, 1503609764757
6351, 1503609764724
6350, 1503609764691
6349, 1503609764658
6348, 1503609764625
6347, 1503609764592
6346, 1503609764559
6345, 1503609764526
6344, 1503609764493
6343, 1503609764460
6342, 1503609764427
6341, 1503609764394
6340, 1503609764361
6339, 1503609764328
6338, 1503609764295
6337, 1503609764262
6336, 1503609764229
6335, 1503609764196
6334, 1503609764163
6333, 1503609764130
6332, 1503609764097
6331, 1503609764064
6330, 1503609764031
6329, 1503609763998
6328, 1503609763965
6327, 1503609763932
6326, 1503609763899
6325, 1503609763866
6324, 1503609763833
6323, 1503609763800
6322, 1503609763767
6321, 1503609763734
6320, 1503609763701
6319, 1503609763668
6318, 1503609763635
6317, 1503609763602
6316, 1503609763569
6315, 1503609763536
6314, 1503609763503
6313, 1503609763470
6312, 1503609763437
6311, 1503609763404
6310, 1503609763371
6309, 1503609763338
6308, 1503609763305
6307, 1503609763272
6306, 1503609763239
6305, 1503609763206
6304, 1503609763173
6303, 1503609763140
6302, 1503609763107
6301, 1503609763074
6300, 1503609763041
6299, 1503609763008
6298, 1503609762975
6297, 1503609762942
6296, 1503609762909
6295, 1503609762876
6294, 1503609762843
6293, 1503609762810
6292, 1503609762777
6291, 1503609762744
6290, 1503609762711
6289, 1503609762678
6288, 1503609762645
6287, 1503609762612
6286, 1503609762579
6285, 1503609762546
6284, 1503609762513
6283, 1503609762480
6282, 1503609762447
6281, 1503609762414
6280, 1503609762381
6279, 1503609762348
6278, 1503609762315
6277, 1503609762282
6276, 1503609762249
6275, 1503609762216
6274, 1503609762183
6273, 1503609762150
6272, 1503609762117
6271, 1503609762084
6270, 1503609762051
6269, 1503609762018
6268, 1503609761985
6267, 1503609761952
6266, 1503609761919
6265, 1503609761886
6264, 1503609761853
6263, 1503609761820
6262, 1503609761787
6261, 1503609761754
6260, 1503609761721
6259, 1503609761688
6258, 1503609761655
6257, 1503609761622
6256, 1503609761589
6255, 1503609761556
6254, 1503609761523
6253, 1503609761490
6252, 1503609761457
6251, 1503609761424
6250, 1503609761391
6249, 1503609761358
6248, 1503609761325
6247, 1503609761292
6246, 1503609761259
6245, 1503609761226
6244, 1503609761193
6243, 1503609761160
6242, 1503609761127
6241, 1503609761094
6240, 1503609761061
6239, 1503609761028
6238, 1503609760995
6237, 1503609760962
6236, 1503609760929
6235, 1503609760896
6234, 1503609760863
6233, 1503609760830
6232, 1503609760797
6231, 1503609760764
6230, 1503609760731
6229, 1503609760698
6228, 1503609760665
6227, 1503609760632
6226, 1503609760599
6225, 1503609760566
6224, 1503609760533
6223, 1503609760500
6222, 1503609760467
6221, 1503609760434
6220, 1503609760401
6219, 1503609760368
6218, 1503609760335
6217, 1503609760302
6216, 1503609760269
6215, 1503609760236
6214, 1503609760203
6213, 1503609760170
6212, 1503609760137
6211, 1503609760104
6210, 1503609760071
6209, 1503609760038
6208, 1503609760005
6207, 1503609759972
6206, 1503609759939
6205, 1503609759906
6204, 1503609759873
6203, 1503609759840
6202, 1503609759807
6201, 1503609759774
6200, 1503609759741
6199, 1503609759708
6198, 1503609759675
6197, 1503609759642
6196, 1503609759609
6195, 1503609759576
6194, 1503609759543
6193, 1503609759510
6192, 1503609759477
6191, 1503609759444
6190, 1503609759411
6189, 1503609759378
6188, 1503609759345
6187, 1503609759312
6186, 1503609759279
6185, 1503609759246
6184, 1503609759213
6183, 1503609759180
6182, 1503609759147
6181, 1503609759114
6180, 1503609759081
6179, 1503609759048
6178, 1503609759015
6177, 1503609758982
6176, 1503609758949
6175, 1503609758916
6174, 1503609758883
6173, 1503609758850
6172, 1503609758817
6171, 1503609758784
6170, 1503609758751
6169, 1503609758718
6168, 1503609758685
6167, 1503609758652
6166, 1503609758619
6165, 1503609758586
6164, 1503609758553
6163, 1503609758520
6162, 1503609758487
6161, 1503609758454
6160, 1503609758421
6159, 1503609758388
6158, 1503609758355
6157, 1503609758322
6156, 1503609758289
6155, 1503609758256
6154, 1503609758223
6153, 1503609758190
6152, 1503609758157
6151, 1503609758124
6150, 1503609758091
6149, 1503609758058
6148, 1503609758025
6147, 1503609757992
6146, 1503609757959
6145, 1503609757926
6144, 1503609757893
6143, 1503609757860
6142, 1503609757827
6141, 1503609757794
6140, 1503609757761
6139, 1503609757728
6138, 1503609757695
6137, 1503609757662
6136, 1503609757629
6135, 1503609757596
6134, 1503609757563
6133, 1503609757530
6132, 1503609757497
6131, 1503609757464
6130, 1503609757431
6129, 1503609757398
6128, 1503609757365
6127, 1503609757332
6126, 1503609757299
6125, 1503609757266
6124, 1503609757233
6123, 1503609757200
6122, 1503609757167
6121, 1503609757134
6120, 1503609757101
6119, 1503609757068
6118, 1503609757035
6117, 1503609757002
6116, 1503609756969
6115, 1503609756936
6114, 1503609756903
6113, 1503609756870
6112, 1503609756837
6111, 1503609756804
6110, 1503609756771
6109, 1503609756738
6108, 1503609756705
6107, 1503609756672
6106, 1503609756639
6105, 1503609756606
6104, 1503609756573
6103, 1503609756540
6102, 1503609756507
6101, 1503609756474
6100, 1503609756441
6099, 1503609756408
6098, 1503609756375
6097, 1503609756342
6096, 1503609756309
6095, 1503609756276
6094, 1503609756243
6093, 1503609756210
6092, 1503609756177
6091, 1503609756144
6090, 1503609756111
6089, 1503609756078
6088, 1503609756045
6087, 1503609756012
6086, 1503609755979
6085, 1503609755946
6084, 1503609755913
6083, 1503609755880
6082, 1503609755847
6081, 1503609755814
6080, 1503609755781
6079, 1503609755748
6078, 1503609755715
6077, 1503609755682
6076, 1503609755649
6075, 1503609755616
6074, 1503609755583
6073, 1503609755550
6072, 1503609755517
6071, 1503609755484
6070, 1503609755451
6069, 1503609755418
6068, 1503609755385
6067, 1503609755352
6066, 1503609755319
6065, 1503609755286
6064, 1503609755253
6063, 1503609755220
6062, 1503609755187
6061, 1503609755154
6060, 1503609755121
6059, 1503609755088
6058, 1503609755055
6057, 1503609755022
6056, 1503609754989
6055, 1503609754956
6054, 1503609754923
6053, 1503609754890
6052, 1503609754857
6051, 1503609754824
6050, 1503609754791
6049, 1503609754758
6048, 1503609754725
6047, 1503609754692
6046, 1503609754659
6045, 1503609754626
6044, 1503609754593
6043, 1503609754560
6042, 1503609754527
6041, 1503609754494
6040, 1503609754461
6039, 1503609754428
6038, 1503609754395
6037, 1503609754362
6036, 1503609754329
6035, 1503609754296
6034, 1503609754263
6033, 1503609754230
6032, 1503609754197
6031, 1503609754164
6030, 1503609754131
6029, 1503609754098
6028, 1503609754065
6027, 1503609754032
6026, 1503609753999
6025, 1503609753966
6024, 1503609753933
6023, 1503609753900
6022, 1503609753867
6021, 1503609753834
6020, 1503609753801
6019, 1503609753768
6018, 1503609753735
6017, 1503609753702
6016, 1503609753669
6015, 1503609753636
6014, 1503609753603
6013, 1503609753570
6012, 1503609753537
6011, 1503609753504
6010, 1503609753471
6009, 1503609753438
6008, 1503609753405
6007, 1503609753372
6006, 1503609753339
6005, 1503609753306
6004, 1503609753273
6003, 1503609753240
6002, 1503609753207
6001, 1503609753174
6000, 1503609753141
5999, 1503609753108
5998, 1503609753075
5997, 1503609753042
5996, 1503609753009
5995, 1503609752976
5994, 1503609752943
5993, 1503609752910
5992, 1503609752877
5991, 1503609752844
5990, 1503609752811
5989, 1503609752778
5988, 1503609752745
5987, 1503609752712
5986, 1503609752679
5985, 1503609752646
5984, 1503609752613
5983, 1503609752580
5982, 1503609752547
5981, 1503609752514
5980, 1503609752481
5979, 1503609752448
5978, 1503609752415
5977, 1503609752382
5976, 1503609752349
5975, 1503609752316
5974, 1503609752283
5973, 1503609752250
5972, 1503609752217
5971, 1503609752184
5970, 1503609752151
5969, 1503609752118
5968, 1503609752085
5967, 1503609752052
5966, 1503609752019
5965, 1503609751986
5964, 1503609751953
5963, 1503609751920
5962, 1503609751887
5961, 1503609751854
5960, 1503609751821
5959, 1503609751788
5958, 1503609751755
5957, 1503609751722
5956, 1503609751689
5955, 1503609751656
5954, 1503609751623
5953, 1503609751590
5952, 1503609751557
5951, 1503609751524
5950, 1503609751491
5949, 1503609751458
5948, 1503609751425
5947, 1503609751392
5946, 1503609751359
5945, 1503609751326
5944, 1503609751293
5943, 1503609751260
5942, 1503609751227
5941, 1503609751194
5940, 1503609751161
5939, 1503609751128
5938, 1503609751095
5937, 1503609751062
5936, 1503609751029
5935, 1503609750996
5934, 1503609750963
5933, 1503609750930
5932, 1503609750897
5931, 1503609750864
5930, 1503609750831
5929, 1503609750798
5928, 1503609750765
5927, 1503609750732
5926, 1503609750699
5925, 1503609750666
5924, 1503609750633
5923, 1503609750600
5922, 1503609750567
5921, 1503609750534
5920, 1503609750501
5919, 1503609750468
5918, 1503609750435
5917, 1503609750402
5916, 1503609750369
5915, 1503609750336
5914, 1503609750303
5913, 1503609750270
5912, 1503609750237
5911, 1503609750204
5910, 1503609750171
5909, 1503609750138
5908, 1503609750105
5907, 1503609750072
5906, 1503609750039
5905, 1503609750006
5904, 1503609749973
5903, 1503609749940
5902, 1503609749907
5901, 1503609749874
5900, 1503609749841
5899, 1503609749808
5898, 1503609749775
5897, 1503609749742
5896, 1503609749709
5895, 1503609749676
5894, 1503609749643
5893, 1503609749610
5892, 1503609749577
5891, 1503609749544
5890, 1503609749511
5889, 1503609749478
5888, 1503609749445
5887, 1503609749412
5886, 1503609749379
5885, 1503609749346
5884, 1503609749313
5883, 1503609749280
5882, 1503609749247
5881, 1503609749214
5880, 1503609749181
5879, 1503609749148
5878, 1503609749115
5877, 1503609749082
5876, 1503609749049
5875, 1503609749016
5874, 1503609748983
5873, 1503609748950
5872, 1503609748917
5871, 1503609748884
5870, 1503609748851
5869, 1503609748818
5868, 1503609748785
5867, 1503609748752
5866, 1503609748719
5865, 1503609748686
5864, 1503609748653
5863, 1503609748620
5862, 1503609748587
5861, 1503609748554
5860, 1503609748521
5859, 1503609748488
5858, 1503609748455
5857, 1503609748422
5856, 1503609748389
5855, 1503609748356
5854, 1503609748323
5853, 1503609748290
5852, 1503609748257
5851, 1503609748224
5850, 1503609748191
5849, 1503609748158
5848, 1503609748125
5847, 1503609748092
5846, 1503609748059
5845, 1503609748026
5844, 1503609747993
5843, 1503609747960
5842, 1503609747927
5841, 1503609747894
5840, 1503609747861
5839, 1503609747828
5838, 1503609747795
5837, 1503609747762
5836, 1503609747729
5835, 1503609747696
5834, 1503609747663
5833, 1503609747630
5832, 1503609747597
5831, 1503609747564
5830, 1503609747531
5829, 1503609747498
5828, 1503609747465
5827, 1503609747432
5826, 1503609747399
5825, 1503609747366
5824, 1503609747333
5823, 1503609747300
5822, 1503609747267
5821, 1503609747234
5820, 1503609747201
5819, 1503609747168
5818, 1503609747135
5817, 1503609747102
5816, 1503609747069
5815, 1503609747036
5814, 1503609747003
5813, 1503609746970
5812, 1503609746937
5811, 1503609746904
5810, 1503609746871
5809, 1503609746838
5808, 1503609746805
5807, 1503609746772
5806, 1503609746739
5805, 1503609746706
5804, 1503609746673
5803, 1503609746640
5802, 1503609746607
5801, 1503609746574
5800, 1503609746541
5799, 1503609746508
5798, 1503609746475
5797, 1503609746442
5796, 1503609746409
5795, 1503609746376
5794, 1503609746343
5793, 1503609746310
5792, 1503609746277
5791, 1503609746244
5790, 1503609746211
5789, 1503609746178
5788, 1503609746145
5787, 1503609746112
5786, 1503609746079
5785, 1503609746046
5784, 1503609746013
5783, 1503609745980
5782, 1503609745947
5781, 1503609745914
5780, 1503609745881
5779, 1503609745848
5778, 1503609745815
5777, 1503609745782
5776, 1503609745749
5775, 1503609745716
5774, 1503609745683
5773, 1503609745650
5772, 1503609745617
5771, 1503609745584
5770, 1503609745551
5769, 1503609745518
5768, 1503609745485
5767, 1503609745452
5766, 1503609745419
5765, 1503609745386
5764, 1503609745353
5763, 1503609745320
5762, 1503609745287
5761, 1503609745254
5760, 1503609745221
5759, 1503609745188
5758, 1503609745155
5757, 1503609745122
5756, 1503609745089
5755, 1503609745056
5754, 1503609745023
5753, 1503609744990
5752, 1503609744957
5751, 1503609744924
5750, 1503609744891
5749, 1503609744858
5748, 1503609744825
5747, 1503609744792
5746, 1503609744759
5745, 1503609744726
5744, 1503609744693
5743, 1503609744660
5742, 1503609744627
5741, 1503609744594
5740, 1503609744561
5739, 1503609744528
5738, 1503609744495
5737, 1503609744462
5736, 1503609744429
5735, 1503609744396
5734, 1503609744363
5733, 1503609744330
5732, 1503609744297
5731, 1503609744264
5730, 1503609744231
5729, 1503609744198
5728, 1503609744165
5727, 1503609744132
5726, 1503609744099
5725, 1503609744066
5724, 1503609744033
5723, 1503609744000
5722, 1503609743967
5721, 1503609743934
5720, 1503609743901
5719, 1503609743868
5718, 1503609743835
5717, 1503609743802
5716, 1503609743769
5715, 1503609743736
5714, 1503609743703
5713, 1503609743670
5712, 1503609743637
5711, 1503609743604
5710, 1503609743571
5709, 1503609743538
5708, 1503609743505
5707, 1503609743472
5706, 1503609743439
5705, 1503609743406
5704, 1503609743373
5703, 1503609743340
5702, 1503609743307
5701, 1503609743274
5700, 1503609743241
5699, 1503609743208
5698, 1503609743175
5697, 1503609743142
5696, 1503609743109
5695, 1503609743076
5694, 1503609743043
5693, 1503609743010
5692, 1503609742977
5691, 1503609742944
5690, 1503609742911
5689, 1503609742878
5688, 1503609742845
5687, 1503609742812
5686, 1503609742779
5685, 1503609742746
5684, 1503609742713
5683, 1503609742680
5682, 1503609742647
5681, 1503609742614
5680, 1503609742581
5679, 1503609742548
5678, 1503609742515
5677, 1503609742482
5676, 1503609742449
5675, 1503609742416
5674, 1503609742383
5673, 1503609742350
5672, 1503609742317
5671, 1503609742284
5670, 1503609742251
5669, 1503609742218
5668, 1503609742185
5667, 1503609742152
5666, 1503609742119
5665, 1503609742086
5664, 1503609742053
5663, 1503609742020
5662, 1503609741987
5661, 1503609741954
5660, 1503609741921
5659, 1503609741888
5658, 1503609741855
5657, 1503609741822
5656, 1503609741789
5655, 1503609741756
5654, 1503609741723
5653, 1503609741690
5652, 1503609741657
5651, 1503609741624
5650, 1503609741591
5649, 1503609741558
5648, 1503609741525
5647, 1503609741492
5646, 1503609741459
5645, 1503609741426
5644, 1503609741393
5643, 1503609741360
5642, 1503609741327
5641, 1503609741294
5640, 1503609741261
5639, 1503609741228
5638, 1503609741195
5637, 1503609741162
5636, 1503609741129
5635, 1503609741096
5634, 1503609741063
5633, 1503609741030
5632, 1503609740997
5631, 1503609740964
5630, 1503609740931
5629, 1503609740898
5628, 1503609740865
5627, 1503609740832
5626, 1503609740799
5625, 1503609740766
5624, 1503609740733
5623, 1503609740700
5622, 1503609740667
5621, 1503609740634
5620, 1503609740601
5619, 1503609740568
5618, 1503609740535
5617, 1503609740502
5616, 1503609740469
5615, 1503609740436
5614, 1503609740403
5613, 1503609740370
5612, 1503609740337
5611, 1503609740304
5610, 1503609740271
5609, 1503609740238
5608, 1503609740205
5607, 1503609740172
5606, 1503609740139
5605, 1503609740106
5604, 1503609740073
5603, 1503609740040
5602, 1503609740007
5601, 1503609739974
5600, 1503609739941
5599, 1503609739908
5598, 1503609739875
5597, 1503609739842
5596, 1503609739809
5595, 1503609739776
5594, 1503609739743
5593, 1503609739710
5592, 1503609739677
5591, 1503609739644
5590, 1503609739611
5589, 1503609739578
5588, 1503609739545
5587, 1503609739512
5586, 1503609739479
5585, 1503609739446
5584, 1503609739413
5583, 1503609739380
5582, 1503609739347
5581, 1503609739314
5580, 1503609739281
5579, 1503609739248
5578, 1503609739215
5577, 1503609739182
5576, 1503609739149
5575, 1503609739116
5574, 1503609739083
5573, 1503609739050
5572, 1503609739017
5571, 1503609738984
5570, 1503609738951
5569, 1503609738918
5568, 1503609738885
5567, 1503609738852
5566, 1503609738819
5565, 1503609738786
5564, 1503609738753
5563, 1503609738720
5562, 1503609738687
5561, 1503609738654
5560, 1503609738621
5559, 1503609738588
5558, 1503609738555
5557, 1503609738522
5556, 1503609738489
5555, 1503609738456
5554, 1503609738423
5553, 1503609738390
5552, 1503609738357
5551, 1503609738324
5550, 1503609738291
5549, 1503609738258
5548, 1503609738225
5547, 1503609738192
5546, 1503609738159
5545, 1503609738126
5544, 1503609738093
5543, 1503609738060
5542, 1503609738027
5541, 1503609737994
5540, 1503609737961
5539, 1503609737928
5538, 1503609737895
5537, 1503609737862
5536, 1503609737829
5535, 1503609737796
5534, 1503609737763
5533, 1503609737730
5532, 1503609737697
5531, 1503609737664
5530, 1503609737631
5529, 1503609737598
5528, 1503609737565
5527, 1503609737532
5526, 1503609737499
5525, 1503609737466
5524, 1503609737433
5523, 1503609737400
5522, 1503609737367
5521, 1503609737334
5520, 1503609737301
5519, 1503609737268
5518, 1503609737235
5517, 1503609737202
5516, 1503609737169
5515, 1503609737136
5514, 1503609737103
5513, 1503609737070
5512, 1503609737037
5511, 1503609737004
5510, 1503609736971
5509, 1503609736938
5508, 1503609736905
5507, 1503609736872
5506, 1503609736839
5505, 1503609736806
5504, 1503609736773
5503, 1503609736740
5502, 1503609736707
5501, 1503609736674
5500, 1503609736641
5499, 1503609736608
5498, 1503609736575
5497, 1503609736542
5496, 1503609736509
5495, 1503609736476
5494, 1503609736443
5493, 1503609736410
5492, 1503609736377
5491, 1503609736344
5490, 1503609736311
5489, 1503609736278
5488, 1503609736245
5487, 1503609736212
5486, 1503609736179
5485, 1503609736146
5484, 1503609736113
5483, 1503609736080
5482, 1503609736047
5481, 1503609736014
5480, 1503609735981
5479, 1503609735948
5478, 1503609735915
5477, 1503609735882
5476, 1503609735849
5475, 1503609735816
5474, 1503609735783
5473, 1503609735750
5472, 1503609735717
5471, 1503609735684
5470, 1503609735651
5469, 1503609735618
5468, 1503609735585
5467, 1503609735552
5466, 1503609735519
5465, 1503609735486
5464, 1503609735453
5463, 1503609735420
5462, 1503609735387
5461, 1503609735354
5460, 1503609735321
5459, 1503609735288
5458, 1503609735255
5457, 1503609735222
5456, 1503609735189
5455, 1503609735156
5454, 1503609735123
5453, 1503609735090
5452, 1503609735057
5451, 1503609735024
5450, 1503609734991
5449, 1503609734958
5448, 1503609734925
5447, 1503609734892
5446, 1503609734859
5445, 1503609734826
5444, 1503609734793
5443, 1503609734760
5442, 1503609734727
5441, 1503609734694
5440, 1503609734661
5439, 1503609734628
5438, 1503609734595
5437, 1503609734562
5436, 1503609734529
5435, 1503609734496
5434, 1503609734463
5433, 1503609734430
5432, 1503609734397
5431, 1503609734364
5430, 1503609734331
5429, 1503609734298
5428, 1503609734265
5427, 1503609734232
5426, 1503609734199
5425, 1503609734166
5424, 1503609734133
5423, 1503609734100
5422, 1503609734067
5421, 1503609734034
5420, 1503609734001
5419, 1503609733968
5418, 1503609733935
5417, 1503609733902
5416, 1503609733869
5415, 1503609733836
5414, 1503609733803
5413, 1503609733770
5412, 1503609733737
5411, 1503609733704
5410, 1503609733671
5409, 1503609733638
5408, 1503609733605
5407, 1503609733572
5406, 1503609733539
5405, 1503609733506
5404, 1503609733473
5403, 1503609733440
5402, 1503609733407
5401, 1503609733374
5400, 1503609733341
5399, 1503609733308
5398, 1503609733275
5397, 1503609733242
5396, 1503609733209
5395, 1503609733176
5394, 1503609733143
5393, 1503609733110
5392, 1503609733077
5391, 1503609733044
5390, 1503609733011
5389, 1503609732978
5388, 1503609732945
5387, 1503609732912
5386, 1503609732879
5385, 1503609732846
5384, 1503609732813
5383, 1503609732780
5382, 1503609732747
5381, 1503609732714
5380, 1503609732681
5379, 1503609732648
5378, 1503609732615
5377, 1503609732582
5376, 1503609732549
5375, 1503609732516
5374, 1503609732483
5373, 1503609732450
5372, 1503609732417
5371, 1503609732384
5370, 1503609732351
5369, 1503609732318
5368, 1503609732285
5367, 1503609732252
5366, 1503609732219
5365, 1503609732186
5364, 1503609732153
5363, 1503609732120
5362, 1503609732087
5361, 1503609732054
5360, 1503609732021
5359, 1503609731988
5358, 1503609731955
5357, 1503609731922
5356, 1503609731889
5355, 1503609731856
5354, 1503609731823
5353, 1503609731790
5352, 1503609731757
5351, 1503609731724
5350, 1503609731691
5349, 1503609731658
5348, 1503609731625
5347, 1503609731592
5346, 1503609731559
5345, 1503609731526
5344, 1503609731493
5343, 1503609731460
5342, 1503609731427
5341, 1503609731394
5340, 1503609731361
5339, 1503609731328
5338, 1503609731295
5337, 1503609731262
5336, 1503609731229
5335, 1503609731196
5334, 1503609731163
5333, 1503609731130
5332, 1503609731097
5331, 1503609731064
5330, 1503609731031
5329, 1503609730998
5328, 1503609730965
5327, 1503609730932
5326, 1503609730899
5325, 1503609730866
5324, 1503609730833
5323, 1503609730800
5322, 1503609730767
5321, 1503609730734
5320, 1503609730701
5319, 1503609730668
5318, 1503609730635
5317, 1503609730602
5316, 1503609730569
5315, 1503609730536
5314, 1503609730503
5313, 1503609730470
5312, 1503609730437
5311, 1503609730404
5310, 1503609730371
5309, 1503609730338
5308, 1503609730305
5307, 1503609730272
5306, 1503609730239
5305, 1503609730206
5304, 1503609730173
5303, 1503609730140
5302, 1503609730107
5301, 1503609730074
5300, 1503609730041
5299, 1503609730008
5298, 1503609729975
5297, 1503609729942
5296, 1503609729909
5295, 1503609729876
5294, 1503609729843
5293, 1503609729810
5292, 1503609729777
5291, 1503609729744
5290, 1503609729711
5289, 1503609729678
5288, 1503609729645
5287, 1503609729612
5286, 1503609729579
5285, 1503609729546
5284, 1503609729513
5283, 1503609729480
5282, 1503609729447
5281, 1503609729414
5280, 1503609729381
5279, 1503609729348
5278, 1503609729315
5277, 1503609729282
5276, 1503609729249
5275, 1503609729216
5274, 1503609729183
5273, 1503609729150
5272, 1503609729117
5271, 1503609729084
5270, 1503609729051
5269, 1503609729018
5268, 1503609728985
5267, 1503609728952
5266, 1503609728919
5265, 1503609728886
5264, 1503609728853
5263, 1503609728820
5262, 1503609728787
5261, 1503609728754
5260, 1503609728721
5259, 1503609728688
5258, 1503609728655
5257, 1503609728622
5256, 1503609728589
5255, 1503609728556
5254, 1503609728523
5253, 1503609728490
5252, 1503609728457
5251, 1503609728424
5250, 1503609728391
5249, 1503609728358
5248, 1503609728325
5247, 1503609728292
5246, 1503609728259
5245, 1503609728226
5244, 1503609728193
5243, 1503609728160
5242, 1503609728127
5241, 1503609728094
5240, 1503609728061
5239, 1503609728028
5238, 1503609727995
5237, 1503609727962
5236, 1503609727929
5235, 1503609727896
5234, 1503609727863
5233, 1503609727830
5232, 1503609727797
5231, 1503609727764
5230, 1503609727731
5229, 1503609727698
5228, 1503609727665
5227, 1503609727632
5226, 1503609727599
5225, 1503609727566
5224, 1503609727533
5223, 1503609727500
5222, 1503609727467
5221, 1503609727434
5220, 1503609727401
5219, 1503609727368
5218, 1503609727335
5217, 1503609727302
5216, 1503609727269
5215, 1503609727236
5214, 1503609727203
5213, 1503609727170
5212, 1503609727137
5211, 1503609727104
5210, 1503609727071
5209, 1503609727038
5208, 1503609727005
5207, 1503609726972
5206, 1503609726939
5205, 1503609726906
5204, 1503609726873
5203, 1503609726840
5202, 1503609726807
5201, 1503609726774
5200, 1503609726741
5199, 1503609726708
5198, 1503609726675
5197, 1503609726642
5196, 1503609726609
5195, 1503609726576
5194, 1503609726543
5193, 1503609726510
5192, 1503609726477
5191, 1503609726444
5190, 1503609726411
5189, 1503609726378
5188, 1503609726345
5187, 1503609726312
5186, 1503609726279
5185, 1503609726246
5184, 1503609726213
5183, 1503609726180
5182, 1503609726147
5181, 1503609726114
5180, 1503609726081
5179, 1503609726048
5178, 1503609726015
5177, 1503609725982
5176, 1503609725949
5175, 1503609725916
5174, 1503609725883
5173, 1503609725850
5172, 1503609725817
5171, 1503609725784
5170, 1503609725751
5169, 1503609725718
5168, 1503609725685
5167, 1503609725652
5166, 1503609725619
5165, 1503609725586
5164, 1503609725553
5163, 1503609725520
5162, 1503609725487
5161, 1503609725454
5160, 1503609725421
5159, 1503609725388
5158, 1503609725355
5157, 1503609725322
5156, 1503609725289
5155, 1503609725256
5154, 1503609725223
5153, 1503609725190
5152, 1503609725157
5151, 1503609725124
5150, 1503609725091
5149, 1503609725058
5148, 1503609725025
5147, 1503609724992
5146, 1503609724959
5145, 1503609724926
5144, 1503609724893
5143, 1503609724860
5142, 1503609724827
5141, 1503609724794
5140, 1503609724761
5139, 1503609724728
5138, 1503609724695
5137, 1503609724662
5136, 1503609724629
5135, 1503609724596
5134, 1503609724563
5133, 1503609724530
5132, 1503609724497
5131, 1503609724464
5130, 1503609724431
5129, 1503609724398
5128, 1503609724365
5127, 1503609724332
5126, 1503609724299
5125, 1503609724266
5124, 1503609724233
5123, 1503609724200
5122, 1503609724167
5121, 1503609724134
5120, 1503609724101
5119, 1503609724068
5118, 1503609724035
5117, 1503609724002
5116, 1503609723969
5115, 1503609723936
5114, 1503609723903
5113, 1503609723870
5112, 1503609723837
5111, 1503609723804
5110, 1503609723771
5109, 1503609723738
5108, 1503609723705
5107, 1503609723672
5106, 1503609723639
5105, 1503609723606
5104, 1503609723573
5103, 1503609723540
5102, 1503609723507
5101, 1503609723474
5100, 1503609723441
5099, 1503609723408
5098, 1503609723375
5097, 1503609723342
5096, 1503609723309
5095, 1503609723276
5094, 1503609723243
5093, 1503609723210
5092, 1503609723177
5091, 1503609723144
5090, 1503609723111
5089, 1503609723078
5088, 1503609723045
5087, 1503609723012
5086, 1503609722979
5085, 1503609722946
5084, 1503609722913
5083, 1503609722880
5082, 1503609722847
5081, 1503609722814
5080, 1503609722781
5079, 1503609722748
5078, 1503609722715
5077, 1503609722682
5076, 1503609722649
5075, 1503609722616
5074, 1503609722583
5073, 1503609722550
5072, 1503609722517
5071, 1503609722484
5070, 1503609722451
5069, 1503609722418
5068, 1503609722385
5067, 1503609722352
5066, 1503609722319
5065, 1503609722286
5064, 1503609722253
5063, 1503609722220
5062, 1503609722187
5061, 1503609722154
5060, 1503609722121
5059, 1503609722088
5058, 1503609722055
5057, 1503609722022
5056, 1503609721989
5055, 1503609721956
5054, 1503609721923
5053, 1503609721890
5052, 1503609721857
5051, 1503609721824
5050, 1503609721791
5049, 1503609721758
5048, 1503609721725
5047, 1503609721692
5046, 1503609721659
5045, 1503609721626
5044, 1503609721593
5043, 1503609721560
5042, 1503609721527
5041, 1503609721494
5040, 1503609721461
5039, 1503609721428
5038, 1503609721395
5037, 1503609721362
5036, 1503609721329
5035, 1503609721296
5034, 1503609721263
5033, 1503609721230
5032, 1503609721197
5031, 1503609721164
5030, 1503609721131
5029, 1503609721098
5028, 1503609721065
5027, 1503609721032
5026, 1503609720999
5025, 1503609720966
5024, 1503609720933
5023, 1503609720900
5022, 1503609720867
5021, 1503609720834
5020, 1503609720801
5019, 1503609720768
5018, 1503609720735
5017, 1503609720702
5016, 1503609720669
5015, 1503609720636
5014, 1503609720603
5013, 1503609720570
5012, 1503609720537
5011, 1503609720504
5010, 1503609720471
5009, 1503609720438
5008, 1503609720405
5007, 1503609720372
5006, 1503609720339
5005, 1503609720306
5004, 1503609720273
5003, 1503609720240
5002, 1503609720207
5001, 1503609720174
5000, 1503609720141
4999, 1503609720108
4998, 1503609720075
4997, 1503609720042
4996, 1503609720009
4995, 1503609719976
4994, 1503609719943
4993, 1503609719910
4992, 1503609719877
4991, 1503609719844
4990, 1503609719811
4989, 1503609719778
4988, 1503609719745
4987, 1503609719712
4986, 1503609719679
4985, 1503609719646
4984, 1503609719613
4983, 1503609719580
4982, 1503609719547
4981, 1503609719514
4980, 1503609719481
4979, 1503609719448
4978, 1503609719415
4977, 1503609719382
4976, 1503609719349
4975, 1503609719316
4974, 1503609719283
4973, 1503609719250
4972, 1503609719217
4971, 1503609719184
4970, 1503609719151
4969, 1503609719118
4968, 1503609719085
4967, 1503609719052
4966, 1503609719019
4965, 1503609718986
4964, 1503609718953
4963, 1503609718920
4962, 1503609718887
4961, 1503609718854
4960, 1503609718821
4959, 1503609718788
4958, 1503609718755
4957, 1503609718722
4956, 1503609718689
4955, 1503609718656
4954, 1503609718623
4953, 1503609718590
4952, 1503609718557
4951, 1503609718524
4950, 1503609718491
4949, 1503609718458
4948, 1503609718425
4947, 1503609718392
4946, 1503609718359
4945, 1503609718326
4944, 1503609718293
4943, 1503609718260
4942, 1503609718227
4941, 1503609718194
4940, 1503609718161
4939, 1503609718128
4938, 1503609718095
4937, 1503609718062
4936, 1503609718029
4935, 1503609717996
4934, 1503609717963
4933, 1503609717930
4932, 1503609717897
4931, 1503609717864
4930, 1503609717831
4929, 1503609717798
4928, 1503609717765
4927, 1503609717732
4926, 1503609717699
4925, 1503609717666
4924, 1503609717633
4923, 1503609717600
4922, 1503609717567
4921, 1503609717534
4920, 1503609717501
4919, 1503609717468
4918, 1503609717435
4917, 1503609717402
4916, 1503609717369
4915, 1503609717336
4914, 1503609717303
4913, 1503609717270
4912, 1503609717237
4911, 1503609717204
4910, 1503609717171
4909, 1503609717138
4908, 1503609717105
4907, 1503609717072
4906, 1503609717039
4905, 1503609717006
4904, 1503609716973
4903, 1503609716940
4902, 1503609716907
4901, 1503609716874
4900, 1503609716841
4899, 1503609716808
4898, 1503609716775
4897, 1503609716742
4896, 1503609716709
4895, 1503609716676
4894, 1503609716643
4893, 1503609716610
4892, 1503609716577
4891, 1503609716544
4890, 1503609716511
4889, 1503609716478
4888, 1503609716445
4887, 1503609716412
4886, 1503609716379
4885, 1503609716346
4884, 1503609716313
4883, 1503609716280
4882, 1503609716247
4881, 1503609716214
4880, 1503609716181
4879, 1503609716148
4878, 1503609716115
4877, 1503609716082
4876, 1503609716049
4875, 1503609716016
4874, 1503609715983
4873, 1503609715950
4872, 1503609715917
4871, 1503609715884
4870, 1503609715851
4869, 1503609715818
4868, 1503609715785
4867, 1503609715752
4866, 1503609715719
4865, 1503609715686
4864, 1503609715653
4863, 1503609715620
4862, 1503609715587
4861, 1503609715554
4860, 1503609715521
4859, 1503609715488
4858, 1503609715455
4857, 1503609715422
4856, 1503609715389
4855, 1503609715356
4854, 1503609715323
4853, 1503609715290
4852, 1503609715257
4851, 1503609715224
4850, 1503609715191
4849, 1503609715158
4848, 1503609715125
4847, 1503609715092
4846, 1503609715059
4845, 1503609715026
4844, 1503609714993
4843, 1503609714960
4842, 1503609714927
4841, 1503609714894
4840, 1503609714861
4839, 1503609714828
4838, 1503609714795
4837, 1503609714762
4836, 1503609714729
4835, 1503609714696
4834, 1503609714663
4833, 1503609714630
4832, 1503609714597
4831, 1503609714564
4830, 1503609714531
4829, 1503609714498
4828, 1503609714465
4827, 1503609714432
4826, 1503609714399
4825, 1503609714366
4824, 1503609714333
4823, 1503609714300
4822, 1503609714267
4821, 1503609714234
4820, 1503609714201
4819, 1503609714168
4818, 1503609714135
4817, 1503609714102
4816, 1503609714069
4815, 1503609714036
4814, 1503609714003
4813, 1503609713970
4812, 1503609713937
4811, 1503609713904
4810, 1503609713871
4809, 1503609713838
4808, 1503609713805
4807, 1503609713772
4806, 1503609713739
4805, 1503609713706
4804, 1503609713673
4803, 1503609713640
4802, 1503609713607
4801, 1503609713574
4800, 1503609713541
4799, 1503609713508
4798, 1503609713475
4797, 1503609713442
4796, 1503609713409
4795, 1503609713376
4794, 1503609713343
4793, 1503609713310
4792, 1503609713277
4791, 1503609713244
4790, 1503609713211
4789, 1503609713178
4788, 1503609713145
4787, 1503609713112
4786, 1503609713079
4785, 1503609713046
4784, 1503609713013
4783, 1503609712980
4782, 1503609712947
4781, 1503609712914
4780, 1503609712881
4779, 1503609712848
4778, 1503609712815
4777, 1503609712782
4776, 1503609712749
4775, 1503609712716
4774, 1503609712683
4773, 1503609712650
4772, 1503609712617
4771, 1503609712584
4770, 1503609712551
4769, 1503609712518
4768, 1503609712485
4767, 1503609712452
4766, 1503609712419
4765, 1503609712386
4764, 1503609712353
4763, 1503609712320
4762, 1503609712287
4761, 1503609712254
4760, 1503609712221
4759, 1503609712188
4758, 1503609712155
4757, 1503609712122
4756, 1503609712089
4755, 1503609712056
4754, 1503609712023
4753, 1503609711990
4752, 1503609711957
4751, 1503609711924
4750, 1503609711891
4749, 1503609711858
4748, 1503609711825
4747, 1503609711792
4746, 1503609711759
4745, 1503609711726
4744, 1503609711693
4743, 1503609711660
4742, 1503609711627
4741, 1503609711594
4740, 1503609711561
4739, 1503609711528
4738, 1503609711495
4737, 1503609711462
4736, 1503609711429
4735, 1503609711396
4734, 1503609711363
4733, 1503609711330
4732, 1503609711297
4731, 1503609711264
4730, 1503609711231
4729, 1503609711198
4728, 1503609711165
4727, 1503609711132
4726, 1503609711099
4725, 1503609711066
4724, 1503609711033
4723, 1503609711000
4722, 1503609710967
4721, 1503609710934
4720, 1503609710901
4719, 1503609710868
4718, 1503609710835
4717, 1503609710802
4716, 1503609710769
4715, 1503609710736
4714, 1503609710703
4713, 1503609710670
4712, 1503609710637
4711, 1503609710604
4710, 1503609710571
4709, 1503609710538
4708, 1503609710505
4707, 1503609710472
4706, 1503609710439
4705, 1503609710406
4704, 1503609710373
4703, 1503609710340
4702, 1503609710307
4701, 1503609710274
4700, 1503609710241
4699, 1503609710208
4698, 1503609710175
4697, 1503609710142
4696, 1503609710109
4695, 1503609710076
4694, 1503609710043
4693, 1503609710010
4692, 1503609709977
4691, 1503609709944
4690, 1503609709911
4689, 1503609709878
4688, 1503609709845
4687, 1503609709812
4686, 1503609709779
4685, 1503609709746
4684, 1503609709713
4683, 1503609709680
4682, 1503609709647
4681, 1503609709614
4680, 1503609709581
4679, 1503609709548
4678, 1503609709515
4677, 1503609709482
4676, 1503609709449
4675, 1503609709416
4674, 1503609709383
4673, 1503609709350
4672, 1503609709317
4671, 1503609709284
4670, 1503609709251
4669, 1503609709218
4668, 1503609709185
4667, 1503609709152
4666, 1503609709119
4665, 1503609709086
4664, 1503609709053
4663, 1503609709020
4662, 1503609708987
4661, 1503609708954
4660, 1503609708921
4659, 1503609708888
4658, 1503609708855
4657, 1503609708822
4656, 1503609708789
4655, 1503609708756
4654, 1503609708723
4653, 1503609708690
4652, 1503609708657
4651, 1503609708624
4650, 1503609708591
4649, 1503609708558
4648, 1503609708525
4647, 1503609708492
4646, 1503609708459
4645, 1503609708426
4644, 1503609708393
4643, 1503609708360
4642, 1503609708327
4641, 1503609708294
4640, 1503609708261
4639, 1503609708228
4638, 1503609708195
4637, 1503609708162
4636, 1503609708129
4635, 1503609708096
4634, 1503609708063
4633, 1503609708030
4632, 1503609707997
4631, 1503609707964
4630, 1503609707931
4629, 1503609707898
4628, 1503609707865
4627, 1503609707832
4626, 1503609707799
4625, 1503609707766
4624, 1503609707733
4623, 1503609707700
4622, 1503609707667
4621, 1503609707634
4620, 1503609707601
4619, 1503609707568
4618, 1503609707535
4617, 1503609707502
4616, 1503609707469
4615, 1503609707436
4614, 1503609707403
4613, 1503609707370
4612, 1503609707337
4611, 1503609707304
4610, 1503609707271
4609, 1503609707238
4608, 1503609707205
4607, 1503609707172
4606, 1503609707139
4605, 1503609707106
4604, 1503609707073
4603, 1503609707040
4602, 1503609707007
4601, 1503609706974
4600, 1503609706941
4599, 1503609706908
4598, 1503609706875
4597, 1503609706842
4596, 1503609706809
4595, 1503609706776
4594, 1503609706743
4593, 1503609706710
4592, 1503609706677
4591, 1503609706644
4590, 1503609706611
4589, 1503609706578
4588, 1503609706545
4587, 1503609706512
4586, 1503609706479
4585, 1503609706446
4584, 1503609706413
4583, 1503609706380
4582, 1503609706347
4581, 1503609706314
4580, 1503609706281
4579, 1503609706248
4578, 1503609706215
4577, 1503609706182
4576, 1503609706149
4575, 1503609706116
4574, 1503609706083
4573, 1503609706050
4572, 1503609706017
4571, 1503609705984
4570, 1503609705951
4569, 1503609705918
4568, 1503609705885
4567, 1503609705852
4566, 1503609705819
4565, 1503609705786
4564, 1503609705753
4563, 1503609705720
4562, 1503609705687
4561, 1503609705654
4560, 1503609705621
4559, 1503609705588
4558, 1503609705555
4557, 1503609705522
4556, 1503609705489
4555, 1503609705456
4554, 1503609705423
4553, 1503609705390
4552, 1503609705357
4551, 1503609705324
4550, 1503609705291
4549, 1503609705258
4548, 1503609705225
4547, 1503609705192
4546, 1503609705159
4545, 1503609705126
4544, 1503609705093
4543, 1503609705060
4542, 1503609705027
4541, 1503609704994
4540, 1503609704961
4539, 1503609704928
4538, 1503609704895
4537, 1503609704862
4536, 1503609704829
4535, 1503609704796
4534, 1503609704763
4533, 1503609704730
4532, 1503609704697
4531, 1503609704664
4530, 1503609704631
4529, 1503609704598
4528, 1503609704565
4527, 1503609704532
4526, 1503609704499
4525, 1503609704466
4524, 1503609704433
4523, 1503609704400
4522, 1503609704367
4521, 1503609704334
4520, 1503609704301
4519, 1503609704268
4518, 1503609704235
4517, 1503609704202
4516, 1503609704169
4515, 1503609704136
4514, 1503609704103
4513, 1503609704070
4512, 1503609704037
4511, 1503609704004
4510, 1503609703971
4509, 1503609703938
4508, 1503609703905
4507, 1503609703872
4506, 1503609703839
4505, 1503609703806
4504, 1503609703773
4503, 1503609703740
4502, 1503609703707
4501, 1503609703674
4500, 1503609703641
4499, 1503609703608
4498, 1503609703575
4497, 1503609703542
4496, 1503609703509
4495, 1503609703476
4494, 1503609703443
4493, 1503609703410
4492, 1503609703377
4491, 1503609703344
4490, 1503609703311
4489, 1503609703278
4488, 1503609703245
4487, 1503609703212
4486, 1503609703179
4485, 1503609703146
4484, 1503609703113
4483, 1503609703080
4482, 1503609703047
4481, 1503609703014
4480, 1503609702981
4479, 1503609702948
4478, 1503609702915
4477, 1503609702882
4476, 1503609702849
4475, 1503609702816
4474, 1503609702783
4473, 1503609702750
4472, 1503609702717
4471, 1503609702684
4470, 1503609702651
4469, 1503609702618
4468, 1503609702585
4467, 1503609702552
4466, 1503609702519
4465, 1503609702486
4464, 1503609702453
4463, 1503609702420
4462, 1503609702387
4461, 1503609702354
4460, 1503609702321
4459, 1503609702288
4458, 1503609702255
4457, 1503609702222
4456, 1503609702189
4455, 1503609702156
4454, 1503609702123
4453, 1503609702090
4452, 1503609702057
4451, 1503609702024
4450, 1503609701991
4449, 1503609701958
4448, 1503609701925
4447, 1503609701892
4446, 1503609701859
4445, 1503609701826
4444, 1503609701793
4443, 1503609701760
4442, 1503609701727
4441, 1503609701694
4440, 1503609701661
4439, 1503609701628
4438, 1503609701595
4437, 1503609701562
4436, 1503609701529
4435, 1503609701496
4434, 1503609701463
4433, 1503609701430
4432, 1503609701397
4431, 1503609701364
4430, 1503609701331
4429, 1503609701298
4428, 1503609701265
4427, 1503609701232
4426, 1503609701199
4425, 1503609701166
4424, 1503609701133
4423, 1503609701100
4422, 1503609701067
4421, 1503609701034
4420, 1503609701001
4419, 1503609700968
4418, 1503609700935
4417, 1503609700902
4416, 1503609700869
4415, 1503609700836
4414, 1503609700803
4413, 1503609700770
4412, 1503609700737
4411, 1503609700704
4410, 1503609700671
4409, 1503609700638
4408, 1503609700605
4407, 1503609700572
4406, 1503609700539
4405, 1503609700506
4404, 1503609700473
4403, 1503609700440
4402, 1503609700407
4401, 1503609700374
4400, 1503609700341
4399, 1503609700308
4398, 1503609700275
4397, 1503609700242
4396, 1503609700209
4395, 1503609700176
4394, 1503609700143
4393, 1503609700110
4392, 1503609700077
4391, 1503609700044
4390, 1503609700011
4389, 1503609699978
4388, 1503609699945
4387, 1503609699912
4386, 1503609699879
4385, 1503609699846
4384, 1503609699813
4383, 1503609699780
4382, 1503609699747
4381, 1503609699714
4380, 1503609699681
4379, 1503609699648
4378, 1503609699615
4377, 1503609699582
4376, 1503609699549
4375, 1503609699516
4374, 1503609699483
4373, 1503609699450
4372, 1503609699417
4371, 1503609699384
4370, 1503609699351
4369, 1503609699318
4368, 1503609699285
4367, 1503609699252
4366, 1503609699219
4365, 1503609699186
4364, 1503609699153
4363, 1503609699120
4362, 1503609699087
4361, 1503609699054
4360, 1503609699021
4359, 1503609698988
4358, 1503609698955
4357, 1503609698922
4356, 1503609698889
4355, 1503609698856
4354, 1503609698823
4353, 1503609698790
4352, 1503609698757
4351, 1503609698724
4350, 1503609698691
4349, 1503609698658
4348, 1503609698625
4347, 1503609698592
4346, 1503609698559
4345, 1503609698526
4344, 1503609698493
4343, 1503609698460
4342, 1503609698427
4341, 1503609698394
4340, 1503609698361
4339, 1503609698328
4338, 1503609698295
4337, 1503609698262
4336, 1503609698229
4335, 1503609698196
4334, 1503609698163
4333, 1503609698130
4332, 1503609698097
4331, 1503609698064
4330, 1503609698031
4329, 1503609697998
4328, 1503609697965
4327, 1503609697932
4326, 1503609697899
4325, 1503609697866
4324, 1503609697833
4323, 1503609697800
4322, 1503609697767
4321, 1503609697734
4320, 1503609697701
4319, 1503609697668
4318, 1503609697635
4317, 1503609697602
4316, 1503609697569
4315, 1503609697536
4314, 1503609697503
4313, 1503609697470
4312, 1503609697437
4311, 1503609697404
4310, 1503609697371
4309, 1503609697338
4308, 1503609697305
4307, 1503609697272
4306, 1503609697239
4305, 1503609697206
4304, 1503609697173
4303, 1503609697140
4302, 1503609697107
4301, 1503609697074
4300, 1503609697041
4299, 1503609697008
4298, 1503609696975
4297, 1503609696942
4296, 1503609696909
4295, 1503609696876
4294, 1503609696843
4293, 1503609696810
4292, 1503609696777
4291, 1503609696744
4290, 1503609696711
4289, 1503609696678
4288, 1503609696645
4287, 1503609696612
4286, 1503609696579
4285, 1503609696546
4284, 1503609696513
4283, 1503609696480
4282, 1503609696447
4281, 1503609696414
4280, 1503609696381
4279, 1503609696348
4278, 1503609696315
4277, 1503609696282
4276, 1503609696249
4275, 1503609696216
4274, 1503609696183
4273, 1503609696150
4272, 1503609696117
4271, 1503609696084
4270, 1503609696051
4269, 1503609696018
4268, 1503609695985
4267, 1503609695952
4266, 1503609695919
4265, 1503609695886
4264, 1503609695853
4263, 1503609695820
4262, 1503609695787
4261, 1503609695754
4260, 1503609695721
4259, 1503609695688
4258, 1503609695655
4257, 1503609695622
4256, 1503609695589
4255, 1503609695556
4254, 1503609695523
4253, 1503609695490
4252, 1503609695457
4251, 1503609695424
4250, 1503609695391
4249, 1503609695358
4248, 1503609695325
4247, 1503609695292
4246, 1503609695259
4245, 1503609695226
4244, 1503609695193
4243, 1503609695160
4242, 1503609695127
4241, 1503609695094
4240, 1503609695061
4239, 1503609695028
4238, 1503609694995
4237, 1503609694962
4236, 1503609694929
4235, 1503609694896
4234, 1503609694863
4233, 1503609694830
4232, 1503609694797
4231, 1503609694764
4230, 1503609694731
4229, 1503609694698
4228, 1503609694665
4227, 1503609694632
4226, 1503609694599
4225, 1503609694566
4224, 1503609694533
4223, 1503609694500
4222, 1503609694467
4221, 1503609694434
4220, 1503609694401
4219, 1503609694368
4218, 1503609694335
4217, 1503609694302
4216, 1503609694269
4215, 1503609694236
4214, 1503609694203
4213, 1503609694170
4212, 1503609694137
4211, 1503609694104
4210, 1503609694071
4209, 1503609694038
4208, 1503609694005
4207, 1503609693972
4206, 1503609693939
4205, 1503609693906
4204, 1503609693873
4203, 1503609693840
4202, 1503609693807
4201, 1503609693774
4200, 1503609693741
4199, 1503609693708
4198, 1503609693675
4197, 1503609693642
4196, 1503609693609
4195, 1503609693576
4194, 1503609693543
4193, 1503609693510
4192, 1503609693477
4191, 1503609693444
4190, 1503609693411
4189, 1503609693378
4188, 1503609693345
4187, 1503609693312
4186, 1503609693279
4185, 1503609693246
4184, 1503609693213
4183, 1503609693180
4182, 1503609693147
4181, 1503609693114
4180, 1503609693081
4179, 1503609693048
4178, 1503609693015
4177, 1503609692982
4176, 1503609692949
4175, 1503609692916
4174, 1503609692883
4173, 1503609692850
4172, 1503609692817
4171, 1503609692784
4170, 1503609692751
4169, 1503609692718
4168, 1503609692685
4167, 1503609692652
4166, 1503609692619
4165, 1503609692586
4164, 1503609692553
4163, 1503609692520
4162, 1503609692487
4161, 1503609692454
4160, 1503609692421
4159, 1503609692388
4158, 1503609692355
4157, 1503609692322
4156, 1503609692289
4155, 1503609692256
4154, 1503609692223
4153, 1503609692190
4152, 1503609692157
4151, 1503609692124
4150, 1503609692091
4149, 1503609692058
4148, 1503609692025
4147, 1503609691992
4146, 1503609691959
4145, 1503609691926
4144, 1503609691893
4143, 1503609691860
4142, 1503609691827
4141, 1503609691794
4140, 1503609691761
4139, 1503609691728
4138, 1503609691695
4137, 1503609691662
4136, 1503609691629
4135, 1503609691596
4134, 1503609691563
4133, 1503609691530
4132, 1503609691497
4131, 1503609691464
4130, 1503609691431
4129, 1503609691398
4128, 1503609691365
4127, 1503609691332
4126, 1503609691299
4125, 1503609691266
4124, 1503609691233
4123, 1503609691200
4122, 1503609691167
4121, 1503609691134
4120, 1503609691101
4119, 1503609691068
4118, 1503609691035
4117, 1503609691002
4116, 1503609690969
4115, 1503609690936
4114, 1503609690903
4113, 1503609690870
4112, 1503609690837
4111, 1503609690804
4110, 1503609690771
4109, 1503609690738
4108, 1503609690705
4107, 1503609690672
4106, 1503609690639
4105, 1503609690606
4104, 1503609690573
4103, 1503609690540
4102, 1503609690507
4101, 1503609690474
4100, 1503609690441
4099, 1503609690408
4098, 1503609690375
4097, 1503609690342
4096, 1503609690309
4095, 1503609690276
4094, 1503609690243
4093, 1503609690210
4092, 1503609690177
4091, 1503609690144
4090, 1503609690111
4089, 1503609690078
4088, 1503609690045
4087, 1503609690012
4086, 1503609689979
4085, 1503609689946
4084, 1503609689913
4083, 1503609689880
4082, 1503609689847
4081, 1503609689814
4080, 1503609689781
4079, 1503609689748
4078, 1503609689715
4077, 1503609689682
4076, 1503609689649
4075, 1503609689616
4074, 1503609689583
4073, 1503609689550
4072, 1503609689517
4071, 1503609689484
4070, 1503609689451
4069, 1503609689418
4068, 1503609689385
4067, 1503609689352
4066, 1503609689319
4065, 1503609689286
4064, 1503609689253
4063, 1503609689220
4062, 1503609689187
4061, 1503609689154
4060, 1503609689121
4059, 1503609689088
4058, 1503609689055
4057, 1503609689022
4056, 1503609688989
4055, 1503609688956
4054, 1503609688923
4053, 1503609688890
4052, 1503609688857
4051, 1503609688824
4050, 1503609688791
4049, 1503609688758
4048, 1503609688725
4047, 1503609688692
4046, 1503609688659
4045, 1503609688626
4044, 1503609688593
4043, 1503609688560
4042, 1503609688527
4041, 1503609688494
4040, 1503609688461
4039, 1503609688428
4038, 1503609688395
4037, 1503609688362
4036, 1503609688329
4035, 1503609688296
4034, 1503609688263
4033, 1503609688230
4032, 1503609688197
4031, 1503609688164
4030, 1503609688131
4029, 1503609688098
4028, 1503609688065
4027, 1503609688032
4026, 1503609687999
4025, 1503609687966
4024, 1503609687933
4023, 1503609687900
4022, 1503609687867
4021, 1503609687834
4020, 1503609687801
4019, 1503609687768
4018, 1503609687735
4017, 1503609687702
4016, 1503609687669
4015, 1503609687636
4014, 1503609687603
4013, 1503609687570
4012, 1503609687537
4011, 1503609687504
4010, 1503609687471
4009, 1503609687438
4008, 1503609687405
4007, 1503609687372
4006, 1503609687339
4005, 1503609687306
4004, 1503609687273
4003, 1503609687240
4002, 1503609687207
4001, 1503609687174
4000, 1503609687141
3999, 1503609687108
3998, 1503609687075
3997, 1503609687042
3996, 1503609687009
3995, 1503609686976
3994, 1503609686943
3993, 1503609686910
3992, 1503609686877
3991, 1503609686844
3990, 1503609686811
3989, 1503609686778
3988, 1503609686745
3987, 1503609686712
3986, 1503609686679
3985, 1503609686646
3984, 1503609686613
3983, 1503609686580
3982, 1503609686547
3981, 1503609686514
3980, 1503609686481
3979, 1503609686448
3978, 1503609686415
3977, 1503609686382
3976, 1503609686349
3975, 1503609686316
3974, 1503609686283
3973, 1503609686250
3972, 1503609686217
3971, 1503609686184
3970, 1503609686151
3969, 1503609686118
3968, 1503609686085
3967, 1503609686052
3966, 1503609686019
3965, 1503609685986
3964, 1503609685953
3963, 1503609685920
3962, 1503609685887
3961, 1503609685854
3960, 1503609685821
3959, 1503609685788
3958, 1503609685755
3957, 1503609685722
3956, 1503609685689
3955, 1503609685656
3954, 1503609685623
3953, 1503609685590
3952, 1503609685557
3951, 1503609685524
3950, 1503609685491
3949, 1503609685458
3948, 1503609685425
3947, 1503609685392
3946, 1503609685359
3945, 1503609685326
3944, 1503609685293
3943, 1503609685260
3942, 1503609685227
3941, 1503609685194
3940, 1503609685161
3939, 1503609685128
3938, 1503609685095
3937, 1503609685062
3936, 1503609685029
3935, 1503609684996
3934, 1503609684963
3933, 1503609684930
3932, 1503609684897
3931, 1503609684864
3930, 1503609684831
3929, 1503609684798
3928, 1503609684765
3927, 1503609684732
3926, 1503609684699
3925, 1503609684666
3924, 1503609684633
3923, 1503609684600
3922, 1503609684567
3921, 1503609684534
3920, 1503609684501
3919, 1503609684468
3918, 1503609684435
3917, 1503609684402
3916, 1503609684369
3915, 1503609684336
3914, 1503609684303
3913, 1503609684270
3912, 1503609684237
3911, 1503609684204
3910, 1503609684171
3909, 1503609684138
3908, 1503609684105
3907, 1503609684072
3906, 1503609684039
3905, 1503609684006
3904, 1503609683973
3903, 1503609683940
3902, 1503609683907
3901, 1503609683874
3900, 1503609683841
3899, 1503609683808
3898, 1503609683775
3897, 1503609683742
3896, 1503609683709
3895, 1503609683676
3894, 1503609683643
3893, 1503609683610
3892, 1503609683577
3891, 1503609683544
3890, 1503609683511
3889, 1503609683478
3888, 1503609683445
3887, 1503609683412
3886, 1503609683379
3885, 1503609683346
3884, 1503609683313
3883, 1503609683280
3882, 1503609683247
3881, 1503609683214
3880, 1503609683181
3879, 1503609683148
3878, 1503609683115
3877, 1503609683082
3876, 1503609683049
3875, 1503609683016
3874, 1503609682983
3873, 1503609682950
3872, 1503609682917
3871, 1503609682884
3870, 1503609682851
3869, 1503609682818
3868, 1503609682785
3867, 1503609682752
3866, 1503609682719
3865, 1503609682686
3864, 1503609682653
3863, 1503609682620
3862, 1503609682587
3861, 1503609682554
3860, 1503609682521
3859, 1503609682488
3858, 1503609682455
3857, 1503609682422
3856, 1503609682389
3855, 1503609682356
3854, 1503609682323
3853, 1503609682290
3852, 1503609682257
3851, 1503609682224
3850, 1503609682191
3849, 1503609682158
3848, 1503609682125
3847, 1503609682092
3846, 1503609682059
3845, 1503609682026
3844, 1503609681993
3843, 1503609681960
3842, 1503609681927
3841, 1503609681894
3840, 1503609681861
3839, 1503609681828
3838, 1503609681795
3837, 1503609681762
3836, 1503609681729
3835, 1503609681696
3834, 1503609681663
3833, 1503609681630
3832, 1503609681597
3831, 1503609681564
3830, 1503609681531
3829, 1503609681498
3828, 1503609681465
3827, 1503609681432
3826, 1503609681399
3825, 1503609681366
3824, 1503609681333
3823, 1503609681300
3822, 1503609681267
3821, 1503609681234
3820, 1503609681201
3819, 1503609681168
3818, 1503609681135
3817, 1503609681102
3816, 1503609681069
3815, 1503609681036
3814, 1503609681003
3813, 1503609680970
3812, 1503609680937
3811, 1503609680904
3810, 1503609680871
3809, 1503609680838
3808, 1503609680805
3807, 1503609680772
3806, 1503609680739
3805, 1503609680706
3804, 1503609680673
3803, 1503609680640
3802, 1503609680607
3801, 1503609680574
3800, 1503609680541
3799, 1503609680508
3798, 1503609680475
3797, 1503609680442
3796, 1503609680409
3795, 1503609680376
3794, 1503609680343
3793, 1503609680310
3792, 1503609680277
3791, 1503609680244
3790, 1503609680211
3789, 1503609680178
3788, 1503609680145
3787, 1503609680112
3786, 1503609680079
3785, 1503609680046
3784, 1503609680013
3783, 1503609679980
3782, 1503609679947
3781, 1503609679914
3780, 1503609679881
3779, 1503609679848
3778, 1503609679815
3777, 1503609679782
3776, 1503609679749
3775, 1503609679716
3774, 1503609679683
3773, 1503609679650
3772, 1503609679617
3771, 1503609679584
3770, 1503609679551
3769, 1503609679518
3768, 1503609679485
3767, 1503609679452
3766, 1503609679419
3765, 1503609679386
3764, 1503609679353
3763, 1503609679320
3762, 1503609679287
3761, 1503609679254
3760, 1503609679221
3759, 1503609679188
3758, 1503609679155
3757, 1503609679122
3756, 1503609679089
3755, 1503609679056
3754, 1503609679023
3753, 1503609678990
3752, 1503609678957
3751, 1503609678924
3750, 1503609678891
3749, 1503609678858
3748, 1503609678825
3747, 1503609678792
3746, 1503609678759
3745, 1503609678726
3744, 1503609678693
3743, 1503609678660
3742, 1503609678627
3741, 1503609678594
3740, 1503609678561
3739, 1503609678528
3738, 1503609678495
3737, 1503609678462
3736, 1503609678429
3735, 1503609678396
3734, 1503609678363
3733, 1503609678330
3732, 1503609678297
3731, 1503609678264
3730, 1503609678231
3729, 1503609678198
3728, 1503609678165
3727, 1503609678132
3726, 1503609678099
3725, 1503609678066
3724, 1503609678033
3723, 1503609678000
3722, 1503609677967
3721, 1503609677934
3720, 1503609677901
3719, 1503609677868
3718, 1503609677835
3717, 1503609677802
3716, 1503609677769
3715, 1503609677736
3714, 1503609677703
3713, 1503609677670
3712, 1503609677637
3711, 1503609677604
3710, 1503609677571
3709, 1503609677538
3708, 1503609677505
3707, 1503609677472
3706, 1503609677439
3705, 1503609677406
3704, 1503609677373
3703, 1503609677340
3702, 1503609677307
3701, 1503609677274
3700, 1503609677241
3699, 1503609677208
3698, 1503609677175
3697, 1503609677142
3696, 1503609677109
3695, 1503609677076
3694, 1503609677043
3693, 1503609677010
3692, 1503609676977
3691, 1503609676944
3690, 1503609676911
3689, 1503609676878
3688, 1503609676845
3687, 1503609676812
3686, 1503609676779
3685, 1503609676746
3684, 1503609676713
3683, 1503609676680
3682, 1503609676647
3681, 1503609676614
3680, 1503609676581
3679, 1503609676548
3678, 1503609676515
3677, 1503609676482
3676, 1503609676449
3675, 1503609676416
3674, 1503609676383
3673, 1503609676350
3672, 1503609676317
3671, 1503609676284
3670, 1503609676251
3669, 1503609676218
3668, 1503609676185
3667, 1503609676152
3666, 1503609676119
3665, 1503609676086
3664, 1503609676053
3663, 1503609676020
3662, 1503609675987
3661, 1503609675954
3660, 1503609675921
3659, 1503609675888
3658, 1503609675855
3657, 1503609675822
3656, 1503609675789
3655, 1503609675756
3654, 1503609675723
3653, 1503609675690
3652, 1503609675657
3651, 1503609675624
3650, 1503609675591
3649, 1503609675558
3648, 1503609675525
3647, 1503609675492
3646, 1503609675459
3645, 1503609675426
3644, 1503609675393
3643, 1503609675360
3642, 1503609675327
3641, 1503609675294
3640, 1503609675261
3639, 1503609675228
3638, 1503609675195
3637, 1503609675162
3636, 1503609675129
3635, 1503609675096
3634, 1503609675063
3633, 1503609675030
3632, 1503609674997
3631, 1503609674964
3630, 1503609674931
3629, 1503609674898
3628, 1503609674865
3627, 1503609674832
3626, 1503609674799
3625, 1503609674766
3624, 1503609674733
3623, 1503609674700
3622, 1503609674667
3621, 1503609674634
3620, 1503609674601
3619, 1503609674568
3618, 1503609674535
3617, 1503609674502
3616, 1503609674469
3615, 1503609674436
3614, 1503609674403
3613, 1503609674370
3612, 1503609674337
3611, 1503609674304
3610, 1503609674271
3609, 1503609674238
3608, 1503609674205
3607, 1503609674172
3606, 1503609674139
3605, 1503609674106
3604, 1503609674073
3603, 1503609674040
3602, 1503609674007
3601, 1503609673974
3600, 1503609673941
3599, 1503609673908
3598, 1503609673875
3597, 1503609673842
3596, 1503609673809
3595, 1503609673776
3594, 1503609673743
3593, 1503609673710
3592, 1503609673677
3591, 1503609673644
3590, 1503609673611
3589, 1503609673578
3588, 1503609673545
3587, 1503609673512
3586, 1503609673479
3585, 1503609673446
3584, 1503609673413
3583, 1503609673380
3582, 1503609673347
3581, 1503609673314
3580, 1503609673281
3579, 1503609673248
3578, 1503609673215
3577, 1503609673182
3576, 1503609673149
3575, 1503609673116
3574, 1503609673083
3573, 1503609673050
3572, 1503609673017
3571, 1503609672984
3570, 1503609672951
3569, 1503609672918
3568, 1503609672885
3567, 1503609672852
3566, 1503609672819
3565, 1503609672786
3564, 1503609672753
3563, 1503609672720
3562, 1503609672687
3561, 1503609672654
3560, 1503609672621
3559, 1503609672588
3558, 1503609672555
3557, 1503609672522
3556, 1503609672489
3555, 1503609672456
3554, 1503609672423
3553, 1503609672390
3552, 1503609672357
3551, 1503609672324
3550, 1503609672291
3549, 1503609672258
3548, 1503609672225
3547, 1503609672192
3546, 1503609672159
3545, 1503609672126
3544, 1503609672093
3543, 1503609672060
3542, 1503609672027
3541, 1503609671994
3540, 1503609671961
3539, 1503609671928
3538, 1503609671895
3537, 1503609671862
3536, 1503609671829
3535, 1503609671796
3534, 1503609671763
3533, 1503609671730
3532, 1503609671697
3531, 1503609671664
3530, 1503609671631
3529, 1503609671598
3528, 1503609671565
3527, 1503609671532
3526, 1503609671499
3525, 1503609671466
3524, 1503609671433
3523, 1503609671400
3522, 1503609671367
3521, 1503609671334
3520, 1503609671301
3519, 1503609671268
3518, 1503609671235
3517, 1503609671202
3516, 1503609671169
3515, 1503609671136
3514, 1503609671103
3513, 1503609671070
3512, 1503609671037
3511, 1503609671004
3510, 1503609670971
3509, 1503609670938
3508, 1503609670905
3507, 1503609670872
3506, 1503609670839
3505, 1503609670806
3504, 1503609670773
3503, 1503609670740
3502, 1503609670707
3501, 1503609670674
3500, 1503609670641
3499, 1503609670608
3498, 1503609670575
3497, 1503609670542
3496, 1503609670509
3495, 1503609670476
3494, 1503609670443
3493, 1503609670410
3492, 1503609670377
3491, 1503609670344
3490, 1503609670311
3489, 1503609670278
3488, 1503609670245
3487, 1503609670212
3486, 1503609670179
3485, 1503609670146
3484, 1503609670113
3483, 1503609670080
3482, 1503609670047
3481, 1503609670014
3480, 1503609669981
3479, 1503609669948
3478, 1503609669915
3477, 1503609669882
3476, 1503609669849
3475, 1503609669816
3474, 1503609669783
3473, 1503609669750
3472, 1503609669717
3471, 1503609669684
3470, 1503609669651
3469, 1503609669618
3468, 1503609669585
3467, 1503609669552
3466, 1503609669519
3465, 1503609669486
3464, 1503609669453
3463, 1503609669420
3462, 1503609669387
3461, 1503609669354
3460, 1503609669321
3459, 1503609669288
3458, 1503609669255
3457, 1503609669222
3456, 1503609669189
3455, 1503609669156
3454, 1503609669123
3453, 1503609669090
3452, 1503609669057
3451, 1503609669024
3450, 1503609668991
3449, 1503609668958
3448, 1503609668925
3447, 1503609668892
3446, 1503609668859
3445, 1503609668826
3444, 1503609668793
3443, 1503609668760
3442, 1503609668727
3441, 1503609668694
3440, 1503609668661
3439, 1503609668628
3438, 1503609668595
3437, 1503609668562
3436, 1503609668529
3435, 1503609668496
3434, 1503609668463
3433, 1503609668430
3432, 1503609668397
3431, 1503609668364
3430, 1503609668331
3429, 1503609668298
3428, 1503609668265
3427, 1503609668232
3426, 1503609668199
3425, 1503609668166
3424, 1503609668133
3423, 1503609668100
3422, 1503609668067
3421, 1503609668034
3420, 1503609668001
3419, 1503609667968
3418, 1503609667935
3417, 1503609667902
3416, 1503609667869
3415, 1503609667836
3414, 1503609667803
3413, 1503609667770
3412, 1503609667737
3411, 1503609667704
3410, 1503609667671
3409, 1503609667638
3408, 1503609667605
3407, 1503609667572
3406, 1503609667539
3405, 1503609667506
3404, 1503609667473
3403, 1503609667440
3402, 1503609667407
3401, 1503609667374
3400, 1503609667341
3399, 1503609667308
3398, 1503609667275
3397, 1503609667242
3396, 1503609667209
3395, 1503609667176
3394, 1503609667143
3393, 1503609667110
3392, 1503609667077
3391, 1503609667044
3390, 1503609667011
3389, 1503609666978
3388, 1503609666945
3387, 1503609666912
3386, 1503609666879
3385, 1503609666846
3384, 1503609666813
3383, 1503609666780
3382, 1503609666747
3381, 1503609666714
3380, 1503609666681
3379, 1503609666648
3378, 1503609666615
3377, 1503609666582
3376, 1503609666549
3375, 1503609666516
3374, 1503609666483
3373, 1503609666450
3372, 1503609666417
3371, 1503609666384
3370, 1503609666351
3369, 1503609666318
3368, 1503609666285
3367, 1503609666252
3366, 1503609666219
3365, 1503609666186
3364, 1503609666153
3363, 1503609666120
3362, 1503609666087
3361, 1503609666054
3360, 1503609666021
3359, 1503609665988
3358, 1503609665955
3357, 1503609665922
3356, 1503609665889
3355, 1503609665856
3354, 1503609665823
3353, 1503609665790
3352, 1503609665757
3351, 1503609665724
3350, 1503609665691
3349, 1503609665658
3348, 1503609665625
3347, 1503609665592
3346, 1503609665559
3345, 1503609665526
3344, 1503609665493
3343, 1503609665460
3342, 1503609665427
3341, 1503609665394
3340, 1503609665361
3339, 1503609665328
3338, 1503609665295
3337, 1503609665262
3336, 1503609665229
3335, 1503609665196
3334, 1503609665163
3333, 1503609665130
3332, 1503609665097
3331, 1503609665064
3330, 1503609665031
3329, 1503609664998
3328, 1503609664965
3327, 1503609664932
3326, 1503609664899
3325, 1503609664866
3324, 1503609664833
3323, 1503609664800
3322, 1503609664767
3321, 1503609664734
3320, 1503609664701
3319, 1503609664668
3318, 1503609664635
3317, 1503609664602
3316, 1503609664569
3315, 1503609664536
3314, 1503609664503
3313, 1503609664470
3312, 1503609664437
3311, 1503609664404
3310, 1503609664371
3309, 1503609664338
3308, 1503609664305
3307, 1503609664272
3306, 1503609664239
3305, 1503609664206
3304, 1503609664173
3303, 1503609664140
3302, 1503609664107
3301, 1503609664074
3300, 1503609664041
3299, 1503609664008
3298, 1503609663975
3297, 1503609663942
3296, 1503609663909
3295, 1503609663876
3294, 1503609663843
3293, 1503609663810
3292, 1503609663777
3291, 1503609663744
3290, 1503609663711
3289, 1503609663678
3288, 1503609663645
3287, 1503609663612
3286, 1503609663579
3285, 1503609663546
3284, 1503609663513
3283, 1503609663480
3282, 1503609663447
3281, 1503609663414
3280, 1503609663381
3279, 1503609663348
3278, 1503609663315
3277, 1503609663282
3276, 1503609663249
3275, 1503609663216
3274, 1503609663183
3273, 1503609663150
3272, 1503609663117
3271, 1503609663084
3270, 1503609663051
3269, 1503609663018
3268, 1503609662985
3267, 1503609662952
3266, 1503609662919
3265, 1503609662886
3264, 1503609662853
3263, 1503609662820
3262, 1503609662787
3261, 1503609662754
3260, 1503609662721
3259, 1503609662688
3258, 1503609662655
3257, 1503609662622
3256, 1503609662589
3255, 1503609662556
3254, 1503609662523
3253, 1503609662490
3252, 1503609662457
3251, 1503609662424
3250, 1503609662391
3249, 1503609662358
3248, 1503609662325
3247, 1503609662292
3246, 1503609662259
3245, 1503609662226
3244, 1503609662193
3243, 1503609662160
3242, 1503609662127
3241, 1503609662094
3240, 1503609662061
3239, 1503609662028
3238, 1503609661995
3237, 1503609661962
3236, 1503609661929
3235, 1503609661896
3234, 1503609661863
3233, 1503609661830
3232, 1503609661797
3231, 1503609661764
3230, 1503609661731
3229, 1503609661698
3228, 1503609661665
3227, 1503609661632
3226, 1503609661599
3225, 1503609661566
3224, 1503609661533
3223, 1503609661500
3222, 1503609661467
3221, 1503609661434
3220, 1503609661401
3219, 1503609661368
3218, 1503609661335
3217, 1503609661302
3216, 1503609661269
3215, 1503609661236
3214, 1503609661203
3213, 1503609661170
3212, 1503609661137
3211, 1503609661104
3210, 1503609661071
3209, 1503609661038
3208, 1503609661005
3207, 1503609660972
3206, 1503609660939
3205, 1503609660906
3204, 1503609660873
3203, 1503609660840
3202, 1503609660807
3201, 1503609660774
3200, 1503609660741
3199, 1503609660708
3198, 1503609660675
3197, 1503609660642
3196, 1503609660609
3195, 1503609660576
3194, 1503609660543
3193, 1503609660510
3192, 1503609660477
3191, 1503609660444
3190, 1503609660411
3189, 1503609660378
3188, 1503609660345
3187, 1503609660312
3186, 1503609660279
3185, 1503609660246
3184, 1503609660213
3183, 1503609660180
3182, 1503609660147
3181, 1503609660114
3180, 1503609660081
3179, 1503609660048
3178, 1503609660015
3177, 1503609659982
3176, 1503609659949
3175, 1503609659916
3174, 1503609659883
3173, 1503609659850
3172, 1503609659817
3171, 1503609659784
3170, 1503609659751
3169, 1503609659718
3168, 1503609659685
3167, 1503609659652
3166, 1503609659619
3165, 1503609659586
3164, 1503609659553
3163, 1503609659520
3162, 1503609659487
3161, 1503609659454
3160, 1503609659421
3159, 1503609659388
3158, 1503609659355
3157, 1503609659322
3156, 1503609659289
3155, 1503609659256
3154, 1503609659223
3153, 1503609659190
3152, 1503609659157
3151, 1503609659124
3150, 1503609659091
3149, 1503609659058
3148, 1503609659025
3147, 1503609658992
3146, 1503609658959
3145, 1503609658926
3144, 1503609658893
3143, 1503609658860
3142, 1503609658827
3141, 1503609658794
3140, 1503609658761
3139, 1503609658728
3138, 1503609658695
3137, 1503609658662
3136, 1503609658629
3135, 1503609658596
3134, 1503609658563
3133, 1503609658530
3132, 1503609658497
3131, 1503609658464
3130, 1503609658431
3129, 1503609658398
3128, 1503609658365
3127, 1503609658332
3126, 1503609658299
3125, 1503609658266
3124, 1503609658233
3123, 1503609658200
3122, 1503609658167
3121, 1503609658134
3120, 1503609658101
3119, 1503609658068
3118, 1503609658035
3117, 1503609658002
3116, 1503609657969
3115, 1503609657936
3114, 1503609657903
3113, 1503609657870
3112, 1503609657837
3111, 1503609657804
3110, 1503609657771
3109, 1503609657738
3108, 1503609657705
3107, 1503609657672
3106, 1503609657639
3105, 1503609657606
3104, 1503609657573
3103, 1503609657540
3102, 1503609657507
3101, 1503609657474
3100, 1503609657441
3099, 1503609657408
3098, 1503609657375
3097, 1503609657342
3096, 1503609657309
3095, 1503609657276
3094, 1503609657243
3093, 1503609657210
3092, 1503609657177
3091, 1503609657144
3090, 1503609657111
3089, 1503609657078
3088, 1503609657045
3087, 1503609657012
3086, 1503609656979
3085, 1503609656946
3084, 1503609656913
3083, 1503609656880
3082, 1503609656847
3081, 1503609656814
3080, 1503609656781
3079, 1503609656748
3078, 1503609656715
3077, 1503609656682
3076, 1503609656649
3075, 1503609656616
3074, 1503609656583
3073, 1503609656550
3072, 1503609656517
3071, 1503609656484
3070, 1503609656451
3069, 1503609656418
3068, 1503609656385
3067, 1503609656352
3066, 1503609656319
3065, 1503609656286
3064, 1503609656253
3063, 1503609656220
3062, 1503609656187
3061, 1503609656154
3060, 1503609656121
3059, 1503609656088
3058, 1503609656055
3057, 1503609656022
3056, 1503609655989
3055, 1503609655956
3054, 1503609655923
3053, 1503609655890
3052, 1503609655857
3051, 1503609655824
3050, 1503609655791
3049, 1503609655758
3048, 1503609655725
3047, 1503609655692
3046, 1503609655659
3045, 1503609655626
3044, 1503609655593
3043, 1503609655560
3042, 1503609655527
3041, 1503609655494
3040, 1503609655461
3039, 1503609655428
3038, 1503609655395
3037, 1503609655362
3036, 1503609655329
3035, 1503609655296
3034, 1503609655263
3033, 1503609655230
3032, 1503609655197
3031, 1503609655164
3030, 1503609655131
3029, 1503609655098
3028, 1503609655065
3027, 1503609655032
3026, 1503609654999
3025, 1503609654966
3024, 1503609654933
3023, 1503609654900
3022, 1503609654867
3021, 1503609654834
3020, 1503609654801
3019, 1503609654768
3018, 1503609654735
3017, 1503609654702
3016, 1503609654669
3015, 1503609654636
3014, 1503609654603
3013, 1503609654570
3012, 1503609654537
3011, 1503609654504
3010, 1503609654471
3009, 1503609654438
3008, 1503609654405
3007, 1503609654372
3006, 1503609654339
3005, 1503609654306
3004, 1503609654273
3003, 1503609654240
3002, 1503609654207
3001, 1503609654174
3000, 1503609654141
2999, 1503609654108
2998, 1503609654075
2997, 1503609654042
2996, 1503609654009
2995, 1503609653976
2994, 1503609653943
2993, 1503609653910
2992, 1503609653877
2991, 1503609653844
2990, 1503609653811
2989, 1503609653778
2988, 1503609653745
2987, 1503609653712
2986, 1503609653679
2985, 1503609653646
2984, 1503609653613
2983, 1503609653580
2982, 1503609653547
2981, 1503609653514
2980, 1503609653481
2979, 1503609653448
2978, 1503609653415
2977, 1503609653382
2976, 1503609653349
2975, 1503609653316
2974, 1503609653283
2973, 1503609653250
2972, 1503609653217
2971, 1503609653184
2970, 1503609653151
2969, 1503609653118
2968, 1503609653085
2967, 1503609653052
2966, 1503609653019
2965, 1503609652986
2964, 1503609652953
2963, 1503609652920
2962, 1503609652887
2961, 1503609652854
2960, 1503609652821
2959, 1503609652788
2958, 1503609652755
2957, 1503609652722
2956, 1503609652689
2955, 1503609652656
2954, 1503609652623
2953, 1503609652590
2952, 1503609652557
2951, 1503609652524
2950, 1503609652491
2949, 1503609652458
2948, 1503609652425
2947, 1503609652392
2946, 1503609652359
2945, 1503609652326
2944, 1503609652293
2943, 1503609652260
2942, 1503609652227
2941, 1503609652194
2940, 1503609652161
2939, 1503609652128
2938, 1503609652095
2937, 1503609652062
2936, 1503609652029
2935, 1503609651996
2934, 1503609651963
2933, 1503609651930
2932, 1503609651897
2931, 1503609651864
2930, 1503609651831
2929, 1503609651798
2928, 1503609651765
2927, 1503609651732
2926, 1503609651699
2925, 1503609651666
2924, 1503609651633
2923, 1503609651600
2922, 1503609651567
2921, 1503609651534
2920, 1503609651501
2919, 1503609651468
2918, 1503609651435
2917, 1503609651402
2916, 1503609651369
2915, 1503609651336
2914, 1503609651303
2913, 1503609651270
2912, 1503609651237
2911, 1503609651204
2910, 1503609651171
2909, 1503609651138
2908, 1503609651105
2907, 1503609651072
2906, 1503609651039
2905, 1503609651006
2904, 1503609650973
2903, 1503609650940
2902, 1503609650907
2901, 1503609650874
2900, 1503609650841
2899, 1503609650808
2898, 1503609650775
2897, 1503609650742
2896, 1503609650709
2895, 1503609650676
2894, 1503609650643
2893, 1503609650610
2892, 1503609650577
2891, 1503609650544
2890, 1503609650511
2889, 1503609650478
2888, 1503609650445
2887, 1503609650412
2886, 1503609650379
2885, 1503609650346
2884, 1503609650313
2883, 1503609650280
2882, 1503609650247
2881, 1503609650214
2880, 1503609650181
2879, 1503609650148
2878, 1503609650115
2877, 1503609650082
2876, 1503609650049
2875, 1503609650016
2874, 1503609649983
2873, 1503609649950
2872, 1503609649917
2871, 1503609649884
2870, 1503609649851
2869, 1503609649818
2868, 1503609649785
2867, 1503609649752
2866, 1503609649719
2865, 1503609649686
2864, 1503609649653
2863, 1503609649620
2862, 1503609649587
2861, 1503609649554
2860, 1503609649521
2859, 1503609649488
2858, 1503609649455
2857, 1503609649422
2856, 1503609649389
2855, 1503609649356
2854, 1503609649323
2853, 1503609649290
2852, 1503609649257
2851, 1503609649224
2850, 1503609649191
2849, 1503609649158
2848, 1503609649125
2847, 1503609649092
2846, 1503609649059
2845, 1503609649026
2844, 1503609648993
2843, 1503609648960
2842, 1503609648927
2841, 1503609648894
2840, 1503609648861
2839, 1503609648828
2838, 1503609648795
2837, 1503609648762
2836, 1503609648729
2835, 1503609648696
2834, 1503609648663
2833, 1503609648630
2832, 1503609648597
2831, 1503609648564
2830, 1503609648531
2829, 1503609648498
2828, 1503609648465
2827, 1503609648432
2826, 1503609648399
2825, 1503609648366
2824, 1503609648333
2823, 1503609648300
2822, 1503609648267
2821, 1503609648234
2820, 1503609648201
2819, 1503609648168
2818, 1503609648135
2817, 1503609648102
2816, 1503609648069
2815, 1503609648036
2814, 1503609648003
2813, 1503609647970
2812, 1503609647937
2811, 1503609647904
2810, 1503609647871
2809, 1503609647838
2808, 1503609647805
2807, 1503609647772
2806, 1503609647739
2805, 1503609647706
2804, 1503609647673
2803, 1503609647640
2802, 1503609647607
2801, 1503609647574
2800, 1503609647541
2799, 1503609647508
2798, 1503609647475
2797, 1503609647442
2796, 1503609647409
2795, 1503609647376
2794, 1503609647343
2793, 1503609647310
2792, 1503609647277
2791, 1503609647244
2790, 1503609647211
2789, 1503609647178
2788, 1503609647145
2787, 1503609647112
2786, 1503609647079
2785, 1503609647046
2784, 1503609647013
2783, 1503609646980
2782, 1503609646947
2781, 1503609646914
2780, 1503609646881
2779, 1503609646848
2778, 1503609646815
2777, 1503609646782
2776, 1503609646749
2775, 1503609646716
2774, 1503609646683
2773, 1503609646650
2772, 1503609646617
2771, 1503609646584
2770, 1503609646551
2769, 1503609646518
2768, 1503609646485
2767, 1503609646452
2766, 1503609646419
2765, 1503609646386
2764, 1503609646353
2763, 1503609646320
2762, 1503609646287
2761, 1503609646254
2760, 1503609646221
2759, 1503609646188
2758, 1503609646155
2757, 1503609646122
2756, 1503609646089
2755, 1503609646056
2754, 1503609646023
2753, 1503609645990
2752, 1503609645957
2751, 1503609645924
2750, 1503609645891
2749, 1503609645858
2748, 1503609645825
2747, 1503609645792
2746, 1503609645759
2745, 1503609645726
2744, 1503609645693
2743, 1503609645660
2742, 1503609645627
2741, 1503609645594
2740, 1503609645561
2739, 1503609645528
2738, 1503609645495
2737, 1503609645462
2736, 1503609645429
2735, 1503609645396
2734, 1503609645363
2733, 1503609645330
2732, 1503609645297
2731, 1503609645264
2730, 1503609645231
2729, 1503609645198
2728, 1503609645165
2727, 1503609645132
2726, 1503609645099
2725, 1503609645066
2724, 1503609645033
2723, 1503609645000
2722, 1503609644967
2721, 1503609644934
2720, 1503609644901
2719, 1503609644868
2718, 1503609644835
2717, 1503609644802
2716, 1503609644769
2715, 1503609644736
2714, 1503609644703
2713, 1503609644670
2712, 1503609644637
2711, 1503609644604
2710, 1503609644571
2709, 1503609644538
2708, 1503609644505
2707, 1503609644472
2706, 1503609644439
2705, 1503609644406
2704, 1503609644373
2703, 1503609644340
2702, 1503609644307
2701, 1503609644274
2700, 1503609644241
2699, 1503609644208
2698, 1503609644175
2697, 1503609644142
2696, 1503609644109
2695, 1503609644076
2694, 1503609644043
2693, 1503609644010
2692, 1503609643977
2691, 1503609643944
2690, 1503609643911
2689, 1503609643878
2688, 1503609643845
2687, 1503609643812
2686, 1503609643779
2685, 1503609643746
2684, 1503609643713
2683, 1503609643680
2682, 1503609643647
2681, 1503609643614
2680, 1503609643581
2679, 1503609643548
2678, 1503609643515
2677, 1503609643482
2676, 1503609643449
2675, 1503609643416
2674, 1503609643383
2673, 1503609643350
2672, 1503609643317
2671, 1503609643284
2670, 1503609643251
2669, 1503609643218
2668, 1503609643185
2667, 1503609643152
2666, 1503609643119
2665, 1503609643086
2664, 1503609643053
2663, 1503609643020
2662, 1503609642987
2661, 1503609642954
2660, 1503609642921
2659, 1503609642888
2658, 1503609642855
2657, 1503609642822
2656, 1503609642789
2655, 1503609642756
2654, 1503609642723
2653, 1503609642690
2652, 1503609642657
2651, 1503609642624
2650, 1503609642591
2649, 1503609642558
2648, 1503609642525
2647, 1503609642492
2646, 1503609642459
2645, 1503609642426
2644, 1503609642393
2643, 1503609642360
2642, 1503609642327
2641, 1503609642294
2640, 1503609642261
2639, 1503609642228
2638, 1503609642195
2637, 1503609642162
2636, 1503609642129
2635, 1503609642096
2634, 1503609642063
2633, 1503609642030
2632, 1503609641997
2631, 1503609641964
2630, 1503609641931
2629, 1503609641898
2628, 1503609641865
2627, 1503609641832
2626, 1503609641799
2625, 1503609641766
2624, 1503609641733
2623, 1503609641700
2622, 1503609641667
2621, 1503609641634
2620, 1503609641601
2619, 1503609641568
2618, 1503609641535
2617, 1503609641502
2616, 1503609641469
2615, 1503609641436
2614, 1503609641403
2613, 1503609641370
2612, 1503609641337
2611, 1503609641304
2610, 1503609641271
2609, 1503609641238
2608, 1503609641205
2607, 1503609641172
2606, 1503609641139
2605, 1503609641106
2604, 1503609641073
2603, 1503609641040
2602, 1503609641007
2601, 1503609640974
2600, 1503609640941
2599, 1503609640908
2598, 1503609640875
2597, 1503609640842
2596, 1503609640809
2595, 1503609640776
2594, 1503609640743
2593, 1503609640710
2592, 1503609640677
2591, 1503609640644
2590, 1503609640611
2589, 1503609640578
2588, 1503609640545
2587, 1503609640512
2586, 1503609640479
2585, 1503609640446
2584, 1503609640413
2583, 1503609640380
2582, 1503609640347
2581, 1503609640314
2580, 1503609640281
2579, 1503609640248
2578, 1503609640215
2577, 1503609640182
2576, 1503609640149
2575, 1503609640116
2574, 1503609640083
2573, 1503609640050
2572, 1503609640017
2571, 1503609639984
2570, 1503609639951
2569, 1503609639918
2568, 1503609639885
2567, 1503609639852
2566, 1503609639819
2565, 1503609639786
2564, 1503609639753
2563, 1503609639720
2562, 1503609639687
2561, 1503609639654
2560, 1503609639621
2559, 1503609639588
2558, 1503609639555
2557, 1503609639522
2556, 1503609639489
2555, 1503609639456
2554, 1503609639423
2553, 1503609639390
2552, 1503609639357
2551, 1503609639324
2550, 1503609639291
2549, 1503609639258
2548, 1503609639225
2547, 1503609639192
2546, 1503609639159
2545, 1503609639126
2544, 1503609639093
2543, 1503609639060
2542, 1503609639027
2541, 1503609638994
2540, 1503609638961
2539, 1503609638928
2538, 1503609638895
2537, 1503609638862
2536, 1503609638829
2535, 1503609638796
2534, 1503609638763
2533, 1503609638730
2532, 1503609638697
2531, 1503609638664
2530, 1503609638631
2529, 1503609638598
2528, 1503609638565
2527, 1503609638532
2526, 1503609638499
2525, 1503609638466
2524, 1503609638433
2523, 1503609638400
2522, 1503609638367
2521, 1503609638334
2520, 1503609638301
2519, 1503609638268
2518, 1503609638235
2517, 1503609638202
2516, 1503609638169
2515, 1503609638136
2514, 1503609638103
2513, 1503609638070
2512, 1503609638037
2511, 1503609638004
2510, 1503609637971
2509, 1503609637938
2508, 1503609637905
2507, 1503609637872
2506, 1503609637839
2505, 1503609637806
2504, 1503609637773
2503, 1503609637740
2502, 1503609637707
2501, 1503609637674
2500, 1503609637641
2499, 1503609637608
2498, 1503609637575
2497, 1503609637542
2496, 1503609637509
2495, 1503609637476
2494, 1503609637443
2493, 1503609637410
2492, 1503609637377
2491, 1503609637344
2490, 1503609637311
2489, 1503609637278
2488, 1503609637245
2487, 1503609637212
2486, 1503609637179
2485, 1503609637146
2484, 1503609637113
2483, 1503609637080
2482, 1503609637047
2481, 1503609637014
2480, 1503609636981
2479, 1503609636948
2478, 1503609636915
2477, 1503609636882
2476, 1503609636849
2475, 1503609636816
2474, 1503609636783
2473, 1503609636750
2472, 1503609636717
2471, 1503609636684
2470, 1503609636651
2469, 1503609636618
2468, 1503609636585
2467, 1503609636552
2466, 1503609636519
2465, 1503609636486
2464, 1503609636453
2463, 1503609636420
2462, 1503609636387
2461, 1503609636354
2460, 1503609636321
2459, 1503609636288
2458, 1503609636255
2457, 1503609636222
2456, 1503609636189
2455, 1503609636156
2454, 1503609636123
2453, 1503609636090
2452, 1503609636057
2451, 1503609636024
2450, 1503609635991
2449, 1503609635958
2448, 1503609635925
2447, 1503609635892
2446, 1503609635859
2445, 1503609635826
2444, 1503609635793
2443, 1503609635760
2442, 1503609635727
2441, 1503609635694
2440, 1503609635661
2439, 1503609635628
2438, 1503609635595
2437, 1503609635562
2436, 1503609635529
2435, 1503609635496
2434, 1503609635463
2433, 1503609635430
2432, 1503609635397
2431, 1503609635364
2430, 1503609635331
2429, 1503609635298
2428, 1503609635265
2427, 1503609635232
2426, 1503609635199
2425, 1503609635166
2424, 1503609635133
2423, 1503609635100
2422, 1503609635067
2421, 1503609635034
2420, 1503609635001
2419, 1503609634968
2418, 1503609634935
2417, 1503609634902
2416, 1503609634869
2415, 1503609634836
2414, 1503609634803
2413, 1503609634770
2412, 1503609634737
2411, 1503609634704
2410, 1503609634671
2409, 1503609634638
2408, 1503609634605
2407, 1503609634572
2406, 1503609634539
2405, 1503609634506
2404, 1503609634473
2403, 1503609634440
2402, 1503609634407
2401, 1503609634374
2400, 1503609634341
2399, 1503609634308
2398, 1503609634275
2397, 1503609634242
2396, 1503609634209
2395, 1503609634176
2394, 1503609634143
2393, 1503609634110
2392, 1503609634077
2391, 1503609634044
2390, 1503609634011
2389, 1503609633978
2388, 1503609633945
2387, 1503609633912
2386, 1503609633879
2385, 1503609633846
2384, 1503609633813
2383, 1503609633780
2382, 1503609633747
2381, 1503609633714
2380, 1503609633681
2379, 1503609633648
2378, 1503609633615
2377, 1503609633582
2376, 1503609633549
2375, 1503609633516
2374, 1503609633483
2373, 1503609633450
2372, 1503609633417
2371, 1503609633384
2370, 1503609633351
2369, 1503609633318
2368, 1503609633285
2367, 1503609633252
2366, 1503609633219
2365, 1503609633186
2364, 1503609633153
2363, 1503609633120
2362, 1503609633087
2361, 1503609633054
2360, 1503609633021
2359, 1503609632988
2358, 1503609632955
2357, 1503609632922
2356, 1503609632889
2355, 1503609632856
2354, 1503609632823
2353, 1503609632790
2352, 1503609632757
2351, 1503609632724
2350, 1503609632691
2349, 1503609632658
2348, 1503609632625
2347, 1503609632592
2346, 1503609632559
2345, 1503609632526
2344, 1503609632493
2343, 1503609632460
2342, 1503609632427
2341, 1503609632394
2340, 1503609632361
2339, 1503609632328
2338, 1503609632295
2337, 1503609632262
2336, 1503609632229
2335, 1503609632196
2334, 1503609632163
2333, 1503609632130
2332, 1503609632097
2331, 1503609632064
2330, 1503609632031
2329, 1503609631998
2328, 1503609631965
2327, 1503609631932
2326, 1503609631899
2325, 1503609631866
2324, 1503609631833
2323, 1503609631800
2322, 1503609631767
2321, 1503609631734
2320, 1503609631701
2319, 1503609631668
2318, 1503609631635
2317, 1503609631602
2316, 1503609631569
2315, 1503609631536
2314, 1503609631503
2313, 1503609631470
2312, 1503609631437
2311, 1503609631404
2310, 1503609631371
2309, 1503609631338
2308, 1503609631305
2307, 1503609631272
2306, 1503609631239
2305, 1503609631206
2304, 1503609631173
2303, 1503609631140
2302, 1503609631107
2301, 1503609631074
2300, 1503609631041
2299, 1503609631008
2298, 1503609630975
2297, 1503609630942
2296, 1503609630909
2295, 1503609630876
2294, 1503609630843
2293, 1503609630810
2292, 1503609630777
2291, 1503609630744
2290, 1503609630711
2289, 1503609630678
2288, 1503609630645
2287, 1503609630612
2286, 1503609630579
2285, 1503609630546
2284, 1503609630513
2283, 1503609630480
2282, 1503609630447
2281, 1503609630414
2280, 1503609630381
2279, 1503609630348
2278, 1503609630315
2277, 1503609630282
2276, 1503609630249
2275, 1503609630216
2274, 1503609630183
2273, 1503609630150
2272, 1503609630117
2271, 1503609630084
2270, 1503609630051
2269, 1503609630018
2268, 1503609629985
2267, 1503609629952
2266, 1503609629919
2265, 1503609629886
2264, 1503609629853
2263, 1503609629820
2262, 1503609629787
2261, 1503609629754
2260, 1503609629721
2259, 1503609629688
2258, 1503609629655
2257, 1503609629622
2256, 1503609629589
2255, 1503609629556
2254, 1503609629523
2253, 1503609629490
2252, 1503609629457
2251, 1503609629424
2250, 1503609629391
2249, 1503609629358
2248, 1503609629325
2247, 1503609629292
2246, 1503609629259
2245, 1503609629226
2244, 1503609629193
2243, 1503609629160
2242, 1503609629127
2241, 1503609629094
2240, 1503609629061
2239, 1503609629028
2238, 1503609628995
2237, 1503609628962
2236, 1503609628929
2235, 1503609628896
2234, 1503609628863
2233, 1503609628830
2232, 1503609628797
2231, 1503609628764
2230, 1503609628731
2229, 1503609628698
2228, 1503609628665
2227, 1503609628632
2226, 1503609628599
2225, 1503609628566
2224, 1503609628533
2223, 1503609628500
2222, 1503609628467
2221, 1503609628434
2220, 1503609628401
2219, 1503609628368
2218, 1503609628335
2217, 1503609628302
2216, 1503609628269
2215, 1503609628236
2214, 1503609628203
2213, 1503609628170
2212, 1503609628137
2211, 1503609628104
2210, 1503609628071
2209, 1503609628038
2208, 1503609628005
2207, 1503609627972
2206, 1503609627939
2205, 1503609627906
2204, 1503609627873
2203, 1503609627840
2202, 1503609627807
2201, 1503609627774
2200, 1503609627741
2199, 1503609627708
2198, 1503609627675
2197, 1503609627642
2196, 1503609627609
2195, 1503609627576
2194, 1503609627543
2193, 1503609627510
2192, 1503609627477
2191, 1503609627444
2190, 1503609627411
2189, 1503609627378
2188, 1503609627345
2187, 1503609627312
2186, 1503609627279
2185, 1503609627246
2184, 1503609627213
2183, 1503609627180
2182, 1503609627147
2181, 1503609627114
2180, 1503609627081
2179, 1503609627048
2178, 1503609627015
2177, 1503609626982
2176, 1503609626949
2175, 1503609626916
2174, 1503609626883
2173, 1503609626850
2172, 1503609626817
2171, 1503609626784
2170, 1503609626751
2169, 1503609626718
2168, 1503609626685
2167, 1503609626652
2166, 1503609626619
2165, 1503609626586
2164, 1503609626553
2163, 1503609626520
2162, 1503609626487
2161, 1503609626454
2160, 1503609626421
2159, 1503609626388
2158, 1503609626355
2157, 1503609626322
2156, 1503609626289
2155, 1503609626256
2154, 1503609626223
2153, 1503609626190
2152, 1503609626157
2151, 1503609626124
2150, 1503609626091
2149, 1503609626058
2148, 1503609626025
2147, 1503609625992
2146, 1503609625959
2145, 1503609625926
2144, 1503609625893
2143, 1503609625860
2142, 1503609625827
2141, 1503609625794
2140, 1503609625761
2139, 1503609625728
2138, 1503609625695
2137, 1503609625662
2136, 1503609625629
2135, 1503609625596
2134, 1503609625563
2133, 1503609625530
2132, 1503609625497
2131, 1503609625464
2130, 1503609625431
2129, 1503609625398
2128, 1503609625365
2127, 1503609625332
2126, 1503609625299
2125, 1503609625266
2124, 1503609625233
2123, 1503609625200
2122, 1503609625167
2121, 1503609625134
2120, 1503609625101
2119, 1503609625068
2118, 1503609625035
2117, 1503609625002
2116, 1503609624969
2115, 1503609624936
2114, 1503609624903
2113, 1503609624870
2112, 1503609624837
2111, 1503609624804
2110, 1503609624771
2109, 1503609624738
2108, 1503609624705
2107, 1503609624672
2106, 1503609624639
2105, 1503609624606
2104, 1503609624573
2103, 1503609624540
2102, 1503609624507
2101, 1503609624474
2100, 1503609624441
2099, 1503609624408
2098, 1503609624375
2097, 1503609624342
2096, 1503609624309
2095, 1503609624276
2094, 1503609624243
2093, 1503609624210
2092, 1503609624177
2091, 1503609624144
2090, 1503609624111
2089, 1503609624078
2088, 1503609624045
2087, 1503609624012
2086, 1503609623979
2085, 1503609623946
2084, 1503609623913
2083, 1503609623880
2082, 1503609623847
2081, 1503609623814
2080, 1503609623781
2079, 1503609623748
2078, 1503609623715
2077, 1503609623682
2076, 1503609623649
2075, 1503609623616
2074, 1503609623583
2073, 1503609623550
2072, 1503609623517
2071, 1503609623484
2070, 1503609623451
2069, 1503609623418
2068, 1503609623385
2067, 1503609623352
2066, 1503609623319
2065, 1503609623286
2064, 1503609623253
2063, 1503609623220
2062, 1503609623187
2061, 1503609623154
2060, 1503609623121
2059, 1503609623088
2058, 1503609623055
2057, 1503609623022
2056, 1503609622989
2055, 1503609622956
2054, 1503609622923
2053, 1503609622890
2052, 1503609622857
2051, 1503609622824
2050, 1503609622791
2049, 1503609622758
2048, 1503609622725
2047, 1503609622692
2046, 1503609622659
2045, 1503609622626
2044, 1503609622593
2043, 1503609622560
2042, 1503609622527
2041, 1503609622494
2040, 1503609622461
2039, 1503609622428
2038, 1503609622395
2037, 1503609622362
2036, 1503609622329
2035, 1503609622296
2034, 1503609622263
2033, 1503609622230
2032, 1503609622197
2031, 1503609622164
2030, 1503609622131
2029, 1503609622098
2028, 1503609622065
2027, 1503609622032
2026, 1503609621999
2025, 1503609621966
2024, 1503609621933
2023, 1503609621900
2022, 1503609621867
2021, 1503609621834
2020, 1503609621801
2019, 1503609621768
2018, 1503609621735
2017, 1503609621702
2016, 1503609621669
2015, 1503609621636
2014, 1503609621603
2013, 1503609621570
2012, 1503609621537
2011, 1503609621504
2010, 1503609621471
2009, 1503609621438
2008, 1503609621405
2007, 1503609621372
2006, 1503609621339
2005, 1503609621306
2004, 1503609621273
2003, 1503609621240
2002, 1503609621207
2001, 1503609621174
2000, 1503609621141
1999, 1503609621108
1998, 1503609621075
1997, 1503609621042
1996, 1503609621009
1995, 1503609620976
1994, 1503609620943
1993, 1503609620910
1992, 1503609620877
1991, 1503609620844
1990, 1503609620811
1989, 1503609620778
1988, 1503609620745
1987, 1503609620712
1986, 1503609620679
1985, 1503609620646
1984, 1503609620613
1983, 1503609620580
1982, 1503609620547
1981, 1503609620514
1980, 1503609620481
1979, 1503609620448
1978, 1503609620415
1977, 1503609620382
1976, 1503609620349
1975, 1503609620316
1974, 1503609620283
1973, 1503609620250
1972, 1503609620217
1971, 1503609620184
1970, 1503609620151
1969, 1503609620118
1968, 1503609620085
1967, 1503609620052
1966, 1503609620019
1965, 1503609619986
1964, 1503609619953
1963, 1503609619920
1962, 1503609619887
1961, 1503609619854
1960, 1503609619821
1959, 1503609619788
1958, 1503609619755
1957, 1503609619722
1956, 1503609619689
1955, 1503609619656
1954, 1503609619623
1953, 1503609619590
1952, 1503609619557
1951, 1503609619524
1950, 1503609619491
1949, 1503609619458
1948, 1503609619425
1947, 1503609619392
1946, 1503609619359
1945, 1503609619326
1944, 1503609619293
1943, 1503609619260
1942, 1503609619227
1941, 1503609619194
1940, 1503609619161
1939, 1503609619128
1938, 1503609619095
1937, 1503609619062
1936, 1503609619029
1935, 1503609618996
1934, 1503609618963
1933, 1503609618930
1932, 1503609618897
1931, 1503609618864
1930, 1503609618831
1929, 1503609618798
1928, 1503609618765
1927, 1503609618732
1926, 1503609618699
1925, 1503609618666
1924, 1503609618633
1923, 1503609618600
1922, 1503609618567
1921, 1503609618534
1920, 1503609618501
1919, 1503609618468
1918, 1503609618435
1917, 1503609618402
1916, 1503609618369
1915, 1503609618336
1914, 1503609618303
1913, 1503609618270
1912, 1503609618237
1911, 1503609618204
1910, 1503609618171
1909, 1503609618138
1908, 1503609618105
1907, 1503609618072
1906, 1503609618039
1905, 1503609618006
1904, 1503609617973
1903, 1503609617940
1902, 1503609617907
1901, 1503609617874
1900, 1503609617841
1899, 1503609617808
1898, 1503609617775
1897, 1503609617742
1896, 1503609617709
1895, 1503609617676
1894, 1503609617643
1893, 1503609617610
1892, 1503609617577
1891, 1503609617544
1890, 1503609617511
1889, 1503609617478
1888, 1503609617445
1887, 1503609617412
1886, 1503609617379
1885, 1503609617346
1884, 1503609617313
1883, 1503609617280
1882, 1503609617247
1881, 1503609617214
1880, 1503609617181
1879, 1503609617148
1878, 1503609617115
1877, 1503609617082
1876, 1503609617049
1875, 1503609617016
1874, 1503609616983
1873, 1503609616950
1872, 1503609616917
1871, 1503609616884
1870, 1503609616851
1869, 1503609616818
1868, 1503609616785
1867, 1503609616752
1866, 1503609616719
1865, 1503609616686
1864, 1503609616653
1863, 1503609616620
1862, 1503609616587
1861, 1503609616554
1860, 1503609616521
1859, 1503609616488
1858, 1503609616455
1857, 1503609616422
1856, 1503609616389
1855, 1503609616356
1854, 1503609616323
1853, 1503609616290
1852, 1503609616257
1851, 1503609616224
1850, 1503609616191
1849, 1503609616158
1848, 1503609616125
1847, 1503609616092
1846, 1503609616059
1845, 1503609616026
1844, 1503609615993
1843, 1503609615960
1842, 1503609615927
1841, 1503609615894
1840, 1503609615861
1839, 1503609615828
1838, 1503609615795
1837, 1503609615762
1836, 1503609615729
1835, 1503609615696
1834, 1503609615663
1833, 1503609615630
1832, 1503609615597
1831, 1503609615564
1830, 1503609615531
1829, 1503609615498
1828, 1503609615465
1827, 1503609615432
1826, 1503609615399
1825, 1503609615366
1824, 1503609615333
1823, 1503609615300
1822, 1503609615267
1821, 1503609615234
1820, 1503609615201
1819, 1503609615168
1818, 1503609615135
1817, 1503609615102
1816, 1503609615069
1815, 1503609615036
1814, 1503609615003
1813, 1503609614970
1812, 1503609614937
1811, 1503609614904
1810, 1503609614871
1809, 1503609614838
1808, 1503609614805
1807, 1503609614772
1806, 1503609614739
1805, 1503609614706
1804, 1503609614673
1803, 1503609614640
1802, 1503609614607
1801, 1503609614574
1800, 1503609614541
1799, 1503609614508
1798, 1503609614475
1797, 1503609614442
1796, 1503609614409
1795, 1503609614376
1794, 1503609614343
1793, 1503609614310
1792, 1503609614277
1791, 1503609614244
1790, 1503609614211
1789, 1503609614178
1788, 1503609614145
1787, 1503609614112
1786, 1503609614079
1785, 1503609614046
1784, 1503609614013
1783, 1503609613980
1782, 1503609613947
1781, 1503609613914
1780, 1503609613881
1779, 1503609613848
1778, 1503609613815
1777, 1503609613782
1776, 1503609613749
1775, 1503609613716
1774, 1503609613683
1773, 1503609613650
1772, 1503609613617
1771, 1503609613584
1770, 1503609613551
1769, 1503609613518
1768, 1503609613485
1767, 1503609613452
1766, 1503609613419
1765, 1503609613386
1764, 1503609613353
1763, 1503609613320
1762, 1503609613287
1761, 1503609613254
1760, 1503609613221
1759, 1503609613188
1758, 1503609613155
1757, 1503609613122
1756, 1503609613089
1755, 1503609613056
1754, 1503609613023
1753, 1503609612990
1752, 1503609612957
1751, 1503609612924
1750, 1503609612891
1749, 1503609612858
1748, 1503609612825
1747, 1503609612792
1746, 1503609612759
1745, 1503609612726
1744, 1503609612693
1743, 1503609612660
1742, 1503609612627
1741, 1503609612594
1740, 1503609612561
1739, 1503609612528
1738, 1503609612495
1737, 1503609612462
1736, 1503609612429
1735, 1503609612396
1734, 1503609612363
1733, 1503609612330
1732, 1503609612297
1731, 1503609612264
1730, 1503609612231
1729, 1503609612198
1728, 1503609612165
1727, 1503609612132
1726, 1503609612099
1725, 1503609612066
1724, 1503609612033
1723, 1503609612000
1722, 1503609611967
1721, 1503609611934
1720, 1503609611901
1719, 1503609611868
1718, 1503609611835
1717, 1503609611802
1716, 1503609611769
1715, 1503609611736
1714, 1503609611703
1713, 1503609611670
1712, 1503609611637
1711, 1503609611604
1710, 1503609611571
1709, 1503609611538
1708, 1503609611505
1707, 1503609611472
1706, 1503609611439
1705, 1503609611406
1704, 1503609611373
1703, 1503609611340
1702, 1503609611307
1701, 1503609611274
1700, 1503609611241
1699, 1503609611208
1698, 1503609611175
1697, 1503609611142
1696, 1503609611109
1695, 1503609611076
1694, 1503609611043
1693, 1503609611010
1692, 1503609610977
1691, 1503609610944
1690, 1503609610911
1689, 1503609610878
1688, 1503609610845
1687, 1503609610812
1686, 1503609610779
1685, 1503609610746
1684, 1503609610713
1683, 1503609610680
1682, 1503609610647
1681, 1503609610614
1680, 1503609610581
1679, 1503609610548
1678, 1503609610515
1677, 1503609610482
1676, 1503609610449
1675, 1503609610416
1674, 1503609610383
1673, 1503609610350
1672, 1503609610317
1671, 1503609610284
1670, 1503609610251
1669, 1503609610218
1668, 1503609610185
1667, 1503609610152
1666, 1503609610119
1665, 1503609610086
1664, 1503609610053
1663, 1503609610020
1662, 1503609609987
1661, 1503609609954
1660, 1503609609921
1659, 1503609609888
1658, 1503609609855
1657, 1503609609822
1656, 1503609609789
1655, 1503609609756
1654, 1503609609723
1653, 1503609609690
1652, 1503609609657
1651, 1503609609624
1650, 1503609609591
1649, 1503609609558
1648, 1503609609525
1647, 1503609609492
1646, 1503609609459
1645, 1503609609426
1644, 1503609609393
1643, 1503609609360
1642, 1503609609327
1641, 1503609609294
1640, 1503609609261
1639, 1503609609228
1638, 1503609609195
1637, 1503609609162
1636, 1503609609129
1635, 1503609609096
1634, 1503609609063
1633, 1503609609030
1632, 1503609608997
1631, 1503609608964
1630, 1503609608931
1629, 1503609608898
1628, 1503609608865
1627, 1503609608832
1626, 1503609608799
1625, 1503609608766
1624, 1503609608733
1623, 1503609608700
1622, 1503609608667
1621, 1503609608634
1620, 1503609608601
1619, 1503609608568
1618, 1503609608535
1617, 1503609608502
1616, 1503609608469
1615, 1503609608436
1614, 1503609608403
1613, 1503609608370
1612, 1503609608337
1611, 1503609608304
1610, 1503609608271
1609, 1503609608238
1608, 1503609608205
1607, 1503609608172
1606, 1503609608139
1605, 1503609608106
1604, 1503609608073
1603, 1503609608040
1602, 1503609608007
1601, 1503609607974
1600, 1503609607941
1599, 1503609607908
1598, 1503609607875
1597, 1503609607842
1596, 1503609607809
1595, 1503609607776
1594, 1503609607743
1593, 1503609607710
1592, 1503609607677
1591, 1503609607644
1590, 1503609607611
1589, 1503609607578
1588, 1503609607545
1587, 1503609607512
1586, 1503609607479
1585, 1503609607446
1584, 1503609607413
1583, 1503609607380
1582, 1503609607347
1581, 1503609607314
1580, 1503609607281
1579, 1503609607248
1578, 1503609607215
1577, 1503609607182
1576, 1503609607149
1575, 1503609607116
1574, 1503609607083
1573, 1503609607050
1572, 1503609607017
1571, 1503609606984
1570, 1503609606951
1569, 1503609606918
1568, 1503609606885
1567, 1503609606852
1566, 1503609606819
1565, 1503609606786
1564, 1503609606753
1563, 1503609606720
1562, 1503609606687
1561, 1503609606654
1560, 1503609606621
1559, 1503609606588
1558, 1503609606555
1557, 1503609606522
1556, 1503609606489
1555, 1503609606456
1554, 1503609606423
1553, 1503609606390
1552, 1503609606357
1551, 1503609606324
1550, 1503609606291
1549, 1503609606258
1548, 1503609606225
1547, 1503609606192
1546, 1503609606159
1545, 1503609606126
1544, 1503609606093
1543, 1503609606060
1542, 1503609606027
1541, 1503609605994
1540, 1503609605961
1539, 1503609605928
1538, 1503609605895
1537, 1503609605862
1536, 1503609605829
1535, 1503609605796
1534, 1503609605763
1533, 1503609605730
1532, 1503609605697
1531, 1503609605664
1530, 1503609605631
1529, 1503609605598
1528, 1503609605565
1527, 1503609605532
1526, 1503609605499
1525, 1503609605466
1524, 1503609605433
1523, 1503609605400
1522, 1503609605367
1521, 1503609605334
1520, 1503609605301
1519, 1503609605268
1518, 1503609605235
1517, 1503609605202
1516, 1503609605169
1515, 1503609605136
1514, 1503609605103
1513, 1503609605070
1512, 1503609605037
1511, 1503609605004
1510, 1503609604971
1509, 1503609604938
1508, 1503609604905
1507, 1503609604872
1506, 1503609604839
1505, 1503609604806
1504, 1503609604773
1503, 1503609604740
1502, 1503609604707
1501, 1503609604674
1500, 1503609604641
1499, 1503609604608
1498, 1503609604575
1497, 1503609604542
1496, 1503609604509
1495, 1503609604476
1494, 1503609604443
1493, 1503609604410
1492, 1503609604377
1491, 1503609604344
1490, 1503609604311
1489, 1503609604278
1488, 1503609604245
1487, 1503609604212
1486, 1503609604179
1485, 1503609604146
1484, 1503609604113
1483, 1503609604080
1482, 1503609604047
1481, 1503609604014
1480, 1503609603981
1479, 1503609603948
1478, 1503609603915
1477, 1503609603882
1476, 1503609603849
1475, 1503609603816
1474, 1503609603783
1473, 1503609603750
1472, 1503609603717
1471, 1503609603684
1470, 1503609603651
1469, 1503609603618
1468, 1503609603585
1467, 1503609603552
1466, 1503609603519
1465, 1503609603486
1464, 1503609603453
1463, 1503609603420
1462, 1503609603387
1461, 1503609603354
1460, 1503609603321
1459, 1503609603288
1458, 1503609603255
1457, 1503609603222
1456, 1503609603189
1455, 1503609603156
1454, 1503609603123
1453, 1503609603090
1452, 1503609603057
1451, 1503609603024
1450, 1503609602991
1449, 1503609602958
1448, 1503609602925
1447, 1503609602892
1446, 1503609602859
1445, 1503609602826
1444, 1503609602793
1443, 1503609602760
1442, 1503609602727
1441, 1503609602694
1440, 1503609602661
1439, 1503609602628
1438, 1503609602595
1437, 1503609602562
1436, 1503609602529
1435, 1503609602496
1434, 1503609602463
1433, 1503609602430
1432, 1503609602397
1431, 1503609602364
1430, 1503609602331
1429, 1503609602298
1428, 1503609602265
1427, 1503609602232
1426, 1503609602199
1425, 1503609602166
1424, 1503609602133
1423, 1503609602100
1422, 1503609602067
1421, 1503609602034
1420, 1503609602001
1419, 1503609601968
1418, 1503609601935
1417, 1503609601902
1416, 1503609601869
1415, 1503609601836
1414, 1503609601803
1413, 1503609601770
1412, 1503609601737
1411, 1503609601704
1410, 1503609601671
1409, 1503609601638
1408, 1503609601605
1407, 1503609601572
1406, 1503609601539
1405, 1503609601506
1404, 1503609601473
1403, 1503609601440
1402, 1503609601407
1401, 1503609601374
1400, 1503609601341
1399, 1503609601308
1398, 1503609601275
1397, 1503609601242
1396, 1503609601209
1395, 1503609601176
1394, 1503609601143
1393, 1503609601110
1392, 1503609601077
1391, 1503609601044
1390, 1503609601011
1389, 1503609600978
1388, 1503609600945
1387, 1503609600912
1386, 1503609600879
1385, 1503609600846
1384, 1503609600813
1383, 1503609600780
1382, 1503609600747
1381, 1503609600714
1380, 1503609600681
1379, 1503609600648
1378, 1503609600615
1377, 1503609600582
1376, 1503609600549
1375, 1503609600516
1374, 1503609600483
1373, 1503609600450
1372, 1503609600417
1371, 1503609600384
1370, 1503609600351
1369, 1503609600318
1368, 1503609600285
1367, 1503609600252
1366, 1503609600219
1365, 1503609600186
1364, 1503609600153
1363, 1503609600120
1362, 1503609600087
1361, 1503609600054
1360, 1503609600021
1359, 1503609599988
1358, 1503609599955
1357, 1503609599922
1356, 1503609599889
1355, 1503609599856
1354, 1503609599823
1353, 1503609599790
1352, 1503609599757
1351, 1503609599724
1350, 1503609599691
1349, 1503609599658
1348, 1503609599625
1347, 1503609599592
1346, 1503609599559
1345, 1503609599526
1344, 1503609599493
1343, 1503609599460
1342, 1503609599427
1341, 1503609599394
1340, 1503609599361
1339, 1503609599328
1338, 1503609599295
1337, 1503609599262
1336, 1503609599229
1335, 1503609599196
1334, 1503609599163
1333, 1503609599130
1332, 1503609599097
1331, 1503609599064
1330, 1503609599031
1329, 1503609598998
1328, 1503609598965
1327, 1503609598932
1326, 1503609598899
1325, 1503609598866
1324, 1503609598833
1323, 1503609598800
1322, 1503609598767
1321, 1503609598734
1320, 1503609598701
1319, 1503609598668
1318, 1503609598635
1317, 1503609598602
1316, 1503609598569
1315, 1503609598536
1314, 1503609598503
1313, 1503609598470
1312, 1503609598437
1311, 1503609598404
1310, 1503609598371
1309, 1503609598338
1308, 1503609598305
1307, 1503609598272
1306, 1503609598239
1305, 1503609598206
1304, 1503609598173
1303, 1503609598140
1302, 1503609598107
1301, 1503609598074
1300, 1503609598041
1299, 1503609598008
1298, 1503609597975
1297, 1503609597942
1296, 1503609597909
1295, 1503609597876
1294, 1503609597843
1293, 1503609597810
1292, 1503609597777
1291, 1503609597744
1290, 1503609597711
1289, 1503609597678
1288, 1503609597645
1287, 1503609597612
1286, 1503609597579
1285, 1503609597546
1284, 1503609597513
1283, 1503609597480
1282, 1503609597447
1281, 1503609597414
1280, 1503609597381
1279, 1503609597348
1278, 1503609597315
1277, 1503609597282
1276, 1503609597249
1275, 1503609597216
1274, 1503609597183
1273, 1503609597150
1272, 1503609597117
1271, 1503609597084
1270, 1503609597051
1269, 1503609597018
1268, 1503609596985
1267, 1503609596952
1266, 1503609596919
1265, 1503609596886
1264, 1503609596853
1263, 1503609596820
1262, 1503609596787
1261, 1503609596754
1260, 1503609596721
1259, 1503609596688
1258, 1503609596655
1257, 1503609596622
1256, 1503609596589
1255, 1503609596556
1254, 1503609596523
1253, 1503609596490
1252, 1503609596457
1251, 1503609596424
1250, 1503609596391
1249, 1503609596358
1248, 1503609596325
1247, 1503609596292
1246, 1503609596259
1245, 1503609596226
1244, 1503609596193
1243, 1503609596160
1242, 1503609596127
1241, 1503609596094
1240, 1503609596061
1239, 1503609596028
1238, 1503609595995
1237, 1503609595962
1236, 1503609595929
1235, 1503609595896
1234, 1503609595863
1233, 1503609595830
1232, 1503609595797
1231, 1503609595764
1230, 1503609595731
1229, 1503609595698
1228, 1503609595665
1227, 1503609595632
1226, 1503609595599
1225, 1503609595566
1224, 1503609595533
1223, 1503609595500
1222, 1503609595467
1221, 1503609595434
1220, 1503609595401
1219, 1503609595368
1218, 1503609595335
1217, 1503609595302
1216, 1503609595269
1215, 1503609595236
1214, 1503609595203
1213, 1503609595170
1212, 1503609595137
1211, 1503609595104
1210, 1503609595071
1209, 1503609595038
1208, 1503609595005
1207, 1503609594972
1206, 1503609594939
1205, 1503609594906
1204, 1503609594873
1203, 1503609594840
1202, 1503609594807
1201, 1503609594774
1200, 1503609594741
1199, 1503609594708
1198, 1503609594675
1197, 1503609594642
1196, 1503609594609
1195, 1503609594576
1194, 1503609594543
1193, 1503609594510
1192, 1503609594477
1191, 1503609594444
1190, 1503609594411
1189, 1503609594378
1188, 1503609594345
1187, 1503609594312
1186, 1503609594279
1185, 1503609594246
1184, 1503609594213
1183, 1503609594180
1182, 1503609594147
1181, 1503609594114
1180, 1503609594081
1179, 1503609594048
1178, 1503609594015
1177, 1503609593982
1176, 1503609593949
1175, 1503609593916
1174, 1503609593883
1173, 1503609593850
1172, 1503609593817
1171, 1503609593784
1170, 1503609593751
1169, 1503609593718
1168, 1503609593685
1167, 1503609593652
1166, 1503609593619
1165, 1503609593586
1164, 1503609593553
1163, 1503609593520
1162, 1503609593487
1161, 1503609593454
1160, 1503609593421
1159, 1503609593388
1158, 1503609593355
1157, 1503609593322
1156, 1503609593289
1155, 1503609593256
1154, 1503609593223
1153, 1503609593190
1152, 1503609593157
1151, 1503609593124
1150, 1503609593091
1149, 1503609593058
1148, 1503609593025
1147, 1503609592992
1146, 1503609592959
1145, 1503609592926
1144, 1503609592893
1143, 1503609592860
1142, 1503609592827
1141, 1503609592794
1140, 1503609592761
1139, 1503609592728
1138, 1503609592695
1137, 1503609592662
1136, 1503609592629
1135, 1503609592596
1134, 1503609592563
1133, 1503609592530
1132, 1503609592497
1131, 1503609592464
1130, 1503609592431
1129, 1503609592398
1128, 1503609592365
1127, 1503609592332
1126, 1503609592299
1125, 1503609592266
1124, 1503609592233
1123, 1503609592200
1122, 1503609592167
1121, 1503609592134
1120, 1503609592101
1119, 1503609592068
1118, 1503609592035
1117, 1503609592002
1116, 1503609591969
1115, 1503609591936
1114, 1503609591903
1113, 1503609591870
1112, 1503609591837
1111, 1503609591804
1110, 1503609591771
1109, 1503609591738
1108, 1503609591705
1107, 1503609591672
1106, 1503609591639
1105, 1503609591606
1104, 1503609591573
1103, 1503609591540
1102, 1503609591507
1101, 1503609591474
1100, 1503609591441
1099, 1503609591408
1098, 1503609591375
1097, 1503609591342
1096, 1503609591309
1095, 1503609591276
1094, 1503609591243
1093, 1503609591210
1092, 1503609591177
1091, 1503609591144
1090, 1503609591111
1089, 1503609591078
1088, 1503609591045
1087, 1503609591012
1086, 1503609590979
1085, 1503609590946
1084, 1503609590913
1083, 1503609590880
1082, 1503609590847
1081, 1503609590814
1080, 1503609590781
1079, 1503609590748
1078, 1503609590715
1077, 1503609590682
1076, 1503609590649
1075, 1503609590616
1074, 1503609590583
1073, 1503609590550
1072, 1503609590517
1071, 1503609590484
1070, 1503609590451
1069, 1503609590418
1068, 1503609590385
1067, 1503609590352
1066, 1503609590319
1065, 1503609590286
1064, 1503609590253
1063, 1503609590220
1062, 1503609590187
1061, 1503609590154
1060, 1503609590121
1059, 1503609590088
1058, 1503609590055
1057, 1503609590022
1056, 1503609589989
1055, 1503609589956
1054, 1503609589923
1053, 1503609589890
1052, 1503609589857
1051, 1503609589824
1050, 1503609589791
1049, 1503609589758
1048, 1503609589725
1047, 1503609589692
1046, 1503609589659
1045, 1503609589626
1044, 1503609589593
1043, 1503609589560
1042, 1503609589527
1041, 1503609589494
1040, 1503609589461
1039, 1503609589428
1038, 1503609589395
1037, 1503609589362
1036, 1503609589329
1035, 1503609589296
1034, 1503609589263
1033, 1503609589230
1032, 1503609589197
1031, 1503609589164
1030, 1503609589131
1029, 1503609589098
1028, 1503609589065
1027, 1503609589032
1026, 1503609588999
1025, 1503609588966
1024, 1503609588933
1023, 1503609588900
1022, 1503609588867
1021, 1503609588834
1020, 1503609588801
1019, 1503609588768
1018, 1503609588735
1017, 1503609588702
1016, 1503609588669
1015, 1503609588636
1014, 1503609588603
1013, 1503609588570
1012, 1503609588537
1011, 1503609588504
1010, 1503609588471
1009, 1503609588438
1008, 1503609588405
1007, 1503609588372
1006, 1503609588339
1005, 1503609588306
1004, 1503609588273
1003, 1503609588240
1002, 1503609588207
1001, 1503609588174
1000, 1503609588141
999, 1503609588108
998, 1503609588075
997, 1503609588042
996, 1503609588009
995, 1503609587976
994, 1503609587943
993, 1503609587910
992, 1503609587877
991, 1503609587844
990, 1503609587811
989, 1503609587778
988, 1503609587745
987, 1503609587712
986, 1503609587679
985, 1503609587646
984, 1503609587613
983, 1503609587580
982, 1503609587547
