7744, 1503610583350
7743, 1503610583317
7742, 1503610583284
7741, 1503610583251
7740, 1503610583218
7739, 1503610583185
7738, 1503610583152
7737, 1503610583119
7736, 1503610583086
7735, 1503610583053
7734, 1503610583020
7733, 1503610582987
7732, 1503610582954
7731, 1503610582921
7730, 1503610582888
7729, 1503610582855
7728, 1503610582822
7727, 1503610582789
7726, 1503610582756
7725, 1503610582723
7724, 1503610582690
7723, 1503610582657
7722, 1503610582624
7721, 1503610582591
7720, 1503610582558
7719, 1503610582525
7718, 1503610582492
7717, 1503610582459
7716, 1503610582426
7715, 1503610582393
7714, 1503610582360
7713, 1503610582327
7712, 1503610582294
7711, 1503610582261
7710, 1503610582228
7709, 1503610582195
7708, 1503610582162
7707, 1503610582129
7706, 1503610582096
7705, 1503610582063
7704, 1503610582030
7703, 1503610581997
7702, 1503610581964
7701, 1503610581931
7700, 1503610581898
7699, 1503610581865
7698, 1503610581832
7697, 1503610581799
7696, 1503610581766
7695, 1503610581733
7694, 1503610581700
7693, 1503610581667
7692, 1503610581634
7691, 1503610581601
7690, 1503610581568
7689, 1503610581535
7688, 1503610581502
7687, 1503610581469
7686, 1503610581436
7685, 1503610581403
7684, 1503610581370
7683, 1503610581337
7682, 1503610581304
7681, 1503610581271
7680, 1503610581238
7679, 1503610581205
7678, 1503610581172
7677, 1503610581139
7676, 1503610581106
7675, 1503610581073
7674, 1503610581040
7673, 1503610581007
7672, 1503610580974
7671, 1503610580941
7670, 1503610580908
7669, 1503610580875
7668, 1503610580842
7667, 1503610580809
7666, 1503610580776
7665, 1503610580743
7664, 1503610580710
7663, 1503610580677
7662, 1503610580644
7661, 1503610580611
7660, 1503610580578
7659, 1503610580545
7658, 1503610580512
7657, 1503610580479
7656, 1503610580446
7655, 1503610580413
7654, 1503610580380
7653, 1503610580347
7652, 1503610580314
7651, 1503610580281
7650, 1503610580248
7649, 1503610580215
7648, 1503610580182
7647, 1503610580149
7646, 1503610580116
7645, 1503610580083
7644, 1503610580050
7643, 1503610580017
7642, 1503610579984
7641, 1503610579951
7640, 1503610579918
7639, 1503610579885
7638, 1503610579852
7637, 1503610579819
7636, 1503610579786
7635, 1503610579753
7634, 1503610579720
7633, 1503610579687
7632, 1503610579654
7631, 1503610579621
7630, 1503610579588
7629, 1503610579555
7628, 1503610579522
7627, 1503610579489
7626, 1503610579456
7625, 1503610579423
7624, 1503610579390
7623, 1503610579357
7622, 1503610579324
7621, 1503610579291
7620, 1503610579258
7619, 1503610579225
7618, 1503610579192
7617, 1503610579159
7616, 1503610579126
7615, 1503610579093
7614, 1503610579060
7613, 1503610579027
7612, 1503610578994
7611, 1503610578961
7610, 1503610578928
7609, 1503610578895
7608, 1503610578862
7607, 1503610578829
7606, 1503610578796
7605, 1503610578763
7604, 1503610578730
7603, 1503610578697
7602, 1503610578664
7601, 1503610578631
7600, 1503610578598
7599, 1503610578565
7598, 1503610578532
7597, 1503610578499
7596, 1503610578466
7595, 1503610578433
7594, 1503610578400
7593, 1503610578367
7592, 1503610578334
7591, 1503610578301
7590, 1503610578268
7589, 1503610578235
7588, 1503610578202
7587, 1503610578169
7586, 1503610578136
7585, 1503610578103
7584, 1503610578070
7583, 1503610578037
7582, 1503610578004
7581, 1503610577971
7580, 1503610577938
7579, 1503610577905
7578, 1503610577872
7577, 1503610577839
7576, 1503610577806
7575, 1503610577773
7574, 1503610577740
7573, 1503610577707
7572, 1503610577674
7571, 1503610577641
7570, 1503610577608
7569, 1503610577575
7568, 1503610577542
7567, 1503610577509
7566, 1503610577476
7565, 1503610577443
7564, 1503610577410
7563, 1503610577377
7562, 1503610577344
7561, 1503610577311
7560, 1503610577278
7559, 1503610577245
7558, 1503610577212
7557, 1503610577179
7556, 1503610577146
7555, 1503610577113
7554, 1503610577080
7553, 1503610577047
7552, 1503610577014
7551, 1503610576981
7550, 1503610576948
7549, 1503610576915
7548, 1503610576882
7547, 1503610576849
7546, 1503610576816
7545, 1503610576783
7544, 1503610576750
7543, 1503610576717
7542, 1503610576684
7541, 1503610576651
7540, 1503610576618
7539, 1503610576585
7538, 1503610576552
7537, 1503610576519
7536, 1503610576486
7535, 1503610576453
7534, 1503610576420
7533, 1503610576387
7532, 1503610576354
7531, 1503610576321
7530, 1503610576288
7529, 1503610576255
7528, 1503610576222
7527, 1503610576189
7526, 1503610576156
7525, 1503610576123
7524, 1503610576090
7523, 1503610576057
7522, 1503610576024
7521, 1503610575991
7520, 1503610575958
7519, 1503610575925
7518, 1503610575892
7517, 1503610575859
7516, 1503610575826
7515, 1503610575793
7514, 1503610575760
7513, 1503610575727
7512, 1503610575694
7511, 1503610575661
7510, 1503610575628
7509, 1503610575595
7508, 1503610575562
7507, 1503610575529
7506, 1503610575496
7505, 1503610575463
7504, 1503610575430
7503, 1503610575397
7502, 1503610575364
7501, 1503610575331
7500, 1503610575298
7499, 1503610575265
7498, 1503610575232
7497, 1503610575199
7496, 1503610575166
7495, 1503610575133
7494, 1503610575100
7493, 1503610575067
7492, 1503610575034
7491, 1503610575001
7490, 1503610574968
7489, 1503610574935
7488, 1503610574902
7487, 1503610574869
7486, 1503610574836
7485, 1503610574803
7484, 1503610574770
7483, 1503610574737
7482, 1503610574704
7481, 1503610574671
7480, 1503610574638
7479, 1503610574605
7478, 1503610574572
7477, 1503610574539
7476, 1503610574506
7475, 1503610574473
7474, 1503610574440
7473, 1503610574407
7472, 1503610574374
7471, 1503610574341
7470, 1503610574308
7469, 1503610574275
7468, 1503610574242
7467, 1503610574209
7466, 1503610574176
7465, 1503610574143
7464, 1503610574110
7463, 1503610574077
7462, 1503610574044
7461, 1503610574011
7460, 1503610573978
7459, 1503610573945
7458, 1503610573912
7457, 1503610573879
7456, 1503610573846
7455, 1503610573813
7454, 1503610573780
7453, 1503610573747
7452, 1503610573714
7451, 1503610573681
7450, 1503610573648
7449, 1503610573615
7448, 1503610573582
7447, 1503610573549
7446, 1503610573516
7445, 1503610573483
7444, 1503610573450
7443, 1503610573417
7442, 1503610573384
7441, 1503610573351
7440, 1503610573318
7439, 1503610573285
7438, 1503610573252
7437, 1503610573219
7436, 1503610573186
7435, 1503610573153
7434, 1503610573120
7433, 1503610573087
7432, 1503610573054
7431, 1503610573021
7430, 1503610572988
7429, 1503610572955
7428, 1503610572922
7427, 1503610572889
7426, 1503610572856
7425, 1503610572823
7424, 1503610572790
7423, 1503610572757
7422, 1503610572724
7421, 1503610572691
7420, 1503610572658
7419, 1503610572625
7418, 1503610572592
7417, 1503610572559
7416, 1503610572526
7415, 1503610572493
7414, 1503610572460
7413, 1503610572427
7412, 1503610572394
7411, 1503610572361
7410, 1503610572328
7409, 1503610572295
7408, 1503610572262
7407, 1503610572229
7406, 1503610572196
7405, 1503610572163
7404, 1503610572130
7403, 1503610572097
7402, 1503610572064
7401, 1503610572031
7400, 1503610571998
7399, 1503610571965
7398, 1503610571932
7397, 1503610571899
7396, 1503610571866
7395, 1503610571833
7394, 1503610571800
7393, 1503610571767
7392, 1503610571734
7391, 1503610571701
7390, 1503610571668
7389, 1503610571635
7388, 1503610571602
7387, 1503610571569
7386, 1503610571536
7385, 1503610571503
7384, 1503610571470
7383, 1503610571437
7382, 1503610571404
7381, 1503610571371
7380, 1503610571338
7379, 1503610571305
7378, 1503610571272
7377, 1503610571239
7376, 1503610571206
7375, 1503610571173
7374, 1503610571140
7373, 1503610571107
7372, 1503610571074
7371, 1503610571041
7370, 1503610571008
7369, 1503610570975
7368, 1503610570942
7367, 1503610570909
7366, 1503610570876
7365, 1503610570843
7364, 1503610570810
7363, 1503610570777
7362, 1503610570744
7361, 1503610570711
7360, 1503610570678
7359, 1503610570645
7358, 1503610570612
7357, 1503610570579
7356, 1503610570546
7355, 1503610570513
7354, 1503610570480
7353, 1503610570447
7352, 1503610570414
7351, 1503610570381
7350, 1503610570348
7349, 1503610570315
7348, 1503610570282
7347, 1503610570249
7346, 1503610570216
7345, 1503610570183
7344, 1503610570150
7343, 1503610570117
7342, 1503610570084
7341, 1503610570051
7340, 1503610570018
7339, 1503610569985
7338, 1503610569952
7337, 1503610569919
7336, 1503610569886
7335, 1503610569853
7334, 1503610569820
7333, 1503610569787
7332, 1503610569754
7331, 1503610569721
7330, 1503610569688
7329, 1503610569655
7328, 1503610569622
7327, 1503610569589
7326, 1503610569556
7325, 1503610569523
7324, 1503610569490
7323, 1503610569457
7322, 1503610569424
7321, 1503610569391
7320, 1503610569358
7319, 1503610569325
7318, 1503610569292
7317, 1503610569259
7316, 1503610569226
7315, 1503610569193
7314, 1503610569160
7313, 1503610569127
7312, 1503610569094
7311, 1503610569061
7310, 1503610569028
7309, 1503610568995
7308, 1503610568962
7307, 1503610568929
7306, 1503610568896
7305, 1503610568863
7304, 1503610568830
7303, 1503610568797
7302, 1503610568764
7301, 1503610568731
7300, 1503610568698
7299, 1503610568665
7298, 1503610568632
7297, 1503610568599
7296, 1503610568566
7295, 1503610568533
7294, 1503610568500
7293, 1503610568467
7292, 1503610568434
7291, 1503610568401
7290, 1503610568368
7289, 1503610568335
7288, 1503610568302
7287, 1503610568269
7286, 1503610568236
7285, 1503610568203
7284, 1503610568170
7283, 1503610568137
7282, 1503610568104
7281, 1503610568071
7280, 1503610568038
7279, 1503610568005
7278, 1503610567972
7277, 1503610567939
7276, 1503610567906
7275, 1503610567873
7274, 1503610567840
7273, 1503610567807
7272, 1503610567774
7271, 1503610567741
7270, 1503610567708
7269, 1503610567675
7268, 1503610567642
7267, 1503610567609
7266, 1503610567576
7265, 1503610567543
7264, 1503610567510
7263, 1503610567477
7262, 1503610567444
7261, 1503610567411
7260, 1503610567378
7259, 1503610567345
7258, 1503610567312
7257, 1503610567279
7256, 1503610567246
7255, 1503610567213
7254, 1503610567180
7253, 1503610567147
7252, 1503610567114
7251, 1503610567081
7250, 1503610567048
7249, 1503610567015
7248, 1503610566982
7247, 1503610566949
7246, 1503610566916
7245, 1503610566883
7244, 1503610566850
7243, 1503610566817
7242, 1503610566784
7241, 1503610566751
7240, 1503610566718
7239, 1503610566685
7238, 1503610566652
7237, 1503610566619
7236, 1503610566586
7235, 1503610566553
7234, 1503610566520
7233, 1503610566487
7232, 1503610566454
7231, 1503610566421
7230, 1503610566388
7229, 1503610566355
7228, 1503610566322
7227, 1503610566289
7226, 1503610566256
7225, 1503610566223
7224, 1503610566190
7223, 1503610566157
7222, 1503610566124
7221, 1503610566091
7220, 1503610566058
7219, 1503610566025
7218, 1503610565992
7217, 1503610565959
7216, 1503610565926
7215, 1503610565893
7214, 1503610565860
7213, 1503610565827
7212, 1503610565794
7211, 1503610565761
7210, 1503610565728
7209, 1503610565695
7208, 1503610565662
7207, 1503610565629
7206, 1503610565596
7205, 1503610565563
7204, 1503610565530
7203, 1503610565497
7202, 1503610565464
7201, 1503610565431
7200, 1503610565398
7199, 1503610565365
7198, 1503610565332
7197, 1503610565299
7196, 1503610565266
7195, 1503610565233
7194, 1503610565200
7193, 1503610565167
7192, 1503610565134
7191, 1503610565101
7190, 1503610565068
7189, 1503610565035
7188, 1503610565002
7187, 1503610564969
7186, 1503610564936
7185, 1503610564903
7184, 1503610564870
7183, 1503610564837
7182, 1503610564804
7181, 1503610564771
7180, 1503610564738
7179, 1503610564705
7178, 1503610564672
7177, 1503610564639
7176, 1503610564606
7175, 1503610564573
7174, 1503610564540
7173, 1503610564507
7172, 1503610564474
7171, 1503610564441
7170, 1503610564408
7169, 1503610564375
7168, 1503610564342
7167, 1503610564309
7166, 1503610564276
7165, 1503610564243
7164, 1503610564210
7163, 1503610564177
7162, 1503610564144
7161, 1503610564111
7160, 1503610564078
7159, 1503610564045
7158, 1503610564012
7157, 1503610563979
7156, 1503610563946
7155, 1503610563913
7154, 1503610563880
7153, 1503610563847
7152, 1503610563814
7151, 1503610563781
7150, 1503610563748
7149, 1503610563715
7148, 1503610563682
7147, 1503610563649
7146, 1503610563616
7145, 1503610563583
7144, 1503610563550
7143, 1503610563517
7142, 1503610563484
7141, 1503610563451
7140, 1503610563418
7139, 1503610563385
7138, 1503610563352
7137, 1503610563319
7136, 1503610563286
7135, 1503610563253
7134, 1503610563220
7133, 1503610563187
7132, 1503610563154
7131, 1503610563121
7130, 1503610563088
7129, 1503610563055
7128, 1503610563022
7127, 1503610562989
7126, 1503610562956
7125, 1503610562923
7124, 1503610562890
7123, 1503610562857
7122, 1503610562824
7121, 1503610562791
7120, 1503610562758
7119, 1503610562725
7118, 1503610562692
7117, 1503610562659
7116, 1503610562626
7115, 1503610562593
7114, 1503610562560
7113, 1503610562527
7112, 1503610562494
7111, 1503610562461
7110, 1503610562428
7109, 1503610562395
7108, 1503610562362
7107, 1503610562329
7106, 1503610562296
7105, 1503610562263
7104, 1503610562230
7103, 1503610562197
7102, 1503610562164
7101, 1503610562131
7100, 1503610562098
7099, 1503610562065
7098, 1503610562032
7097, 1503610561999
7096, 1503610561966
7095, 1503610561933
7094, 1503610561900
7093, 1503610561867
7092, 1503610561834
7091, 1503610561801
7090, 1503610561768
7089, 1503610561735
7088, 1503610561702
7087, 1503610561669
7086, 1503610561636
7085, 1503610561603
7084, 1503610561570
7083, 1503610561537
7082, 1503610561504
7081, 1503610561471
7080, 1503610561438
7079, 1503610561405
7078, 1503610561372
7077, 1503610561339
7076, 1503610561306
7075, 1503610561273
7074, 1503610561240
7073, 1503610561207
7072, 1503610561174
7071, 1503610561141
7070, 1503610561108
7069, 1503610561075
7068, 1503610561042
7067, 1503610561009
7066, 1503610560976
7065, 1503610560943
7064, 1503610560910
7063, 1503610560877
7062, 1503610560844
7061, 1503610560811
7060, 1503610560778
7059, 1503610560745
7058, 1503610560712
7057, 1503610560679
7056, 1503610560646
7055, 1503610560613
7054, 1503610560580
7053, 1503610560547
7052, 1503610560514
7051, 1503610560481
7050, 1503610560448
7049, 1503610560415
7048, 1503610560382
7047, 1503610560349
7046, 1503610560316
7045, 1503610560283
7044, 1503610560250
7043, 1503610560217
7042, 1503610560184
7041, 1503610560151
7040, 1503610560118
7039, 1503610560085
7038, 1503610560052
7037, 1503610560019
7036, 1503610559986
7035, 1503610559953
7034, 1503610559920
7033, 1503610559887
7032, 1503610559854
7031, 1503610559821
7030, 1503610559788
7029, 1503610559755
7028, 1503610559722
7027, 1503610559689
7026, 1503610559656
7025, 1503610559623
7024, 1503610559590
7023, 1503610559557
7022, 1503610559524
7021, 1503610559491
7020, 1503610559458
7019, 1503610559425
7018, 1503610559392
7017, 1503610559359
7016, 1503610559326
7015, 1503610559293
7014, 1503610559260
7013, 1503610559227
7012, 1503610559194
7011, 1503610559161
7010, 1503610559128
7009, 1503610559095
7008, 1503610559062
7007, 1503610559029
7006, 1503610558996
7005, 1503610558963
7004, 1503610558930
7003, 1503610558897
7002, 1503610558864
7001, 1503610558831
7000, 1503610558798
6999, 1503610558765
6998, 1503610558732
6997, 1503610558699
6996, 1503610558666
6995, 1503610558633
6994, 1503610558600
6993, 1503610558567
6992, 1503610558534
6991, 1503610558501
6990, 1503610558468
6989, 1503610558435
6988, 1503610558402
6987, 1503610558369
6986, 1503610558336
6985, 1503610558303
6984, 1503610558270
6983, 1503610558237
6982, 1503610558204
6981, 1503610558171
6980, 1503610558138
6979, 1503610558105
6978, 1503610558072
6977, 1503610558039
6976, 1503610558006
6975, 1503610557973
6974, 1503610557940
6973, 1503610557907
6972, 1503610557874
6971, 1503610557841
6970, 1503610557808
6969, 1503610557775
6968, 1503610557742
6967, 1503610557709
6966, 1503610557676
6965, 1503610557643
6964, 1503610557610
6963, 1503610557577
6962, 1503610557544
6961, 1503610557511
6960, 1503610557478
6959, 1503610557445
6958, 1503610557412
6957, 1503610557379
6956, 1503610557346
6955, 1503610557313
6954, 1503610557280
6953, 1503610557247
6952, 1503610557214
6951, 1503610557181
6950, 1503610557148
6949, 1503610557115
6948, 1503610557082
6947, 1503610557049
6946, 1503610557016
6945, 1503610556983
6944, 1503610556950
6943, 1503610556917
6942, 1503610556884
6941, 1503610556851
6940, 1503610556818
6939, 1503610556785
6938, 1503610556752
6937, 1503610556719
6936, 1503610556686
6935, 1503610556653
6934, 1503610556620
6933, 1503610556587
6932, 1503610556554
6931, 1503610556521
6930, 1503610556488
6929, 1503610556455
6928, 1503610556422
6927, 1503610556389
6926, 1503610556356
6925, 1503610556323
6924, 1503610556290
6923, 1503610556257
6922, 1503610556224
6921, 1503610556191
6920, 1503610556158
6919, 1503610556125
6918, 1503610556092
6917, 1503610556059
6916, 1503610556026
6915, 1503610555993
6914, 1503610555960
6913, 1503610555927
6912, 1503610555894
6911, 1503610555861
6910, 1503610555828
6909, 1503610555795
6908, 1503610555762
6907, 1503610555729
6906, 1503610555696
6905, 1503610555663
6904, 1503610555630
6903, 1503610555597
6902, 1503610555564
6901, 1503610555531
6900, 1503610555498
6899, 1503610555465
6898, 1503610555432
6897, 1503610555399
6896, 1503610555366
6895, 1503610555333
6894, 1503610555300
6893, 1503610555267
6892, 1503610555234
6891, 1503610555201
6890, 1503610555168
6889, 1503610555135
6888, 1503610555102
6887, 1503610555069
6886, 1503610555036
6885, 1503610555003
6884, 1503610554970
6883, 1503610554937
6882, 1503610554904
6881, 1503610554871
6880, 1503610554838
6879, 1503610554805
6878, 1503610554772
6877, 1503610554739
6876, 1503610554706
6875, 1503610554673
6874, 1503610554640
6873, 1503610554607
6872, 1503610554574
6871, 1503610554541
6870, 1503610554508
6869, 1503610554475
6868, 1503610554442
6867, 1503610554409
6866, 1503610554376
6865, 1503610554343
6864, 1503610554310
6863, 1503610554277
6862, 1503610554244
6861, 1503610554211
6860, 1503610554178
6859, 1503610554145
6858, 1503610554112
6857, 1503610554079
6856, 1503610554046
6855, 1503610554013
6854, 1503610553980
6853, 1503610553947
6852, 1503610553914
6851, 1503610553881
6850, 1503610553848
6849, 1503610553815
6848, 1503610553782
6847, 1503610553749
6846, 1503610553716
6845, 1503610553683
6844, 1503610553650
6843, 1503610553617
6842, 1503610553584
6841, 1503610553551
6840, 1503610553518
6839, 1503610553485
6838, 1503610553452
6837, 1503610553419
6836, 1503610553386
6835, 1503610553353
6834, 1503610553320
6833, 1503610553287
6832, 1503610553254
6831, 1503610553221
6830, 1503610553188
6829, 1503610553155
6828, 1503610553122
6827, 1503610553089
6826, 1503610553056
6825, 1503610553023
6824, 1503610552990
6823, 1503610552957
6822, 1503610552924
6821, 1503610552891
6820, 1503610552858
6819, 1503610552825
6818, 1503610552792
6817, 1503610552759
6816, 1503610552726
6815, 1503610552693
6814, 1503610552660
6813, 1503610552627
6812, 1503610552594
6811, 1503610552561
6810, 1503610552528
6809, 1503610552495
6808, 1503610552462
6807, 1503610552429
6806, 1503610552396
6805, 1503610552363
6804, 1503610552330
6803, 1503610552297
6802, 1503610552264
6801, 1503610552231
6800, 1503610552198
6799, 1503610552165
6798, 1503610552132
6797, 1503610552099
6796, 1503610552066
6795, 1503610552033
6794, 1503610552000
6793, 1503610551967
6792, 1503610551934
6791, 1503610551901
6790, 1503610551868
6789, 1503610551835
6788, 1503610551802
6787, 1503610551769
6786, 1503610551736
6785, 1503610551703
6784, 1503610551670
6783, 1503610551637
6782, 1503610551604
6781, 1503610551571
6780, 1503610551538
6779, 1503610551505
6778, 1503610551472
6777, 1503610551439
6776, 1503610551406
6775, 1503610551373
6774, 1503610551340
6773, 1503610551307
6772, 1503610551274
6771, 1503610551241
6770, 1503610551208
6769, 1503610551175
6768, 1503610551142
6767, 1503610551109
6766, 1503610551076
6765, 1503610551043
6764, 1503610551010
6763, 1503610550977
6762, 1503610550944
6761, 1503610550911
6760, 1503610550878
6759, 1503610550845
6758, 1503610550812
6757, 1503610550779
6756, 1503610550746
6755, 1503610550713
6754, 1503610550680
6753, 1503610550647
6752, 1503610550614
6751, 1503610550581
6750, 1503610550548
6749, 1503610550515
6748, 1503610550482
6747, 1503610550449
6746, 1503610550416
6745, 1503610550383
6744, 1503610550350
6743, 1503610550317
6742, 1503610550284
6741, 1503610550251
6740, 1503610550218
6739, 1503610550185
6738, 1503610550152
6737, 1503610550119
6736, 1503610550086
6735, 1503610550053
6734, 1503610550020
6733, 1503610549987
6732, 1503610549954
6731, 1503610549921
6730, 1503610549888
6729, 1503610549855
6728, 1503610549822
6727, 1503610549789
6726, 1503610549756
6725, 1503610549723
6724, 1503610549690
6723, 1503610549657
6722, 1503610549624
6721, 1503610549591
6720, 1503610549558
6719, 1503610549525
6718, 1503610549492
6717, 1503610549459
6716, 1503610549426
6715, 1503610549393
6714, 1503610549360
6713, 1503610549327
6712, 1503610549294
6711, 1503610549261
6710, 1503610549228
6709, 1503610549195
6708, 1503610549162
6707, 1503610549129
6706, 1503610549096
6705, 1503610549063
6704, 1503610549030
6703, 1503610548997
6702, 1503610548964
6701, 1503610548931
6700, 1503610548898
6699, 1503610548865
6698, 1503610548832
6697, 1503610548799
6696, 1503610548766
6695, 1503610548733
6694, 1503610548700
6693, 1503610548667
6692, 1503610548634
6691, 1503610548601
6690, 1503610548568
6689, 1503610548535
6688, 1503610548502
6687, 1503610548469
6686, 1503610548436
6685, 1503610548403
6684, 1503610548370
6683, 1503610548337
6682, 1503610548304
6681, 1503610548271
6680, 1503610548238
6679, 1503610548205
6678, 1503610548172
6677, 1503610548139
6676, 1503610548106
6675, 1503610548073
6674, 1503610548040
6673, 1503610548007
6672, 1503610547974
6671, 1503610547941
6670, 1503610547908
6669, 1503610547875
6668, 1503610547842
6667, 1503610547809
6666, 1503610547776
6665, 1503610547743
6664, 1503610547710
6663, 1503610547677
6662, 1503610547644
6661, 1503610547611
6660, 1503610547578
6659, 1503610547545
6658, 1503610547512
6657, 1503610547479
6656, 1503610547446
6655, 1503610547413
6654, 1503610547380
6653, 1503610547347
6652, 1503610547314
6651, 1503610547281
6650, 1503610547248
6649, 1503610547215
6648, 1503610547182
6647, 1503610547149
6646, 1503610547116
6645, 1503610547083
6644, 1503610547050
6643, 1503610547017
6642, 1503610546984
6641, 1503610546951
6640, 1503610546918
6639, 1503610546885
6638, 1503610546852
6637, 1503610546819
6636, 1503610546786
6635, 1503610546753
6634, 1503610546720
6633, 1503610546687
6632, 1503610546654
6631, 1503610546621
6630, 1503610546588
6629, 1503610546555
6628, 1503610546522
6627, 1503610546489
6626, 1503610546456
6625, 1503610546423
6624, 1503610546390
6623, 1503610546357
6622, 1503610546324
6621, 1503610546291
6620, 1503610546258
6619, 1503610546225
6618, 1503610546192
6617, 1503610546159
6616, 1503610546126
6615, 1503610546093
6614, 1503610546060
6613, 1503610546027
6612, 1503610545994
6611, 1503610545961
6610, 1503610545928
6609, 1503610545895
6608, 1503610545862
6607, 1503610545829
6606, 1503610545796
6605, 1503610545763
6604, 1503610545730
6603, 1503610545697
6602, 1503610545664
6601, 1503610545631
6600, 1503610545598
6599, 1503610545565
6598, 1503610545532
6597, 1503610545499
6596, 1503610545466
6595, 1503610545433
6594, 1503610545400
6593, 1503610545367
6592, 1503610545334
6591, 1503610545301
6590, 1503610545268
6589, 1503610545235
6588, 1503610545202
6587, 1503610545169
6586, 1503610545136
6585, 1503610545103
6584, 1503610545070
6583, 1503610545037
6582, 1503610545004
6581, 1503610544971
6580, 1503610544938
6579, 1503610544905
6578, 1503610544872
6577, 1503610544839
6576, 1503610544806
6575, 1503610544773
6574, 1503610544740
6573, 1503610544707
6572, 1503610544674
6571, 1503610544641
6570, 1503610544608
6569, 1503610544575
6568, 1503610544542
6567, 1503610544509
6566, 1503610544476
6565, 1503610544443
6564, 1503610544410
6563, 1503610544377
6562, 1503610544344
6561, 1503610544311
6560, 1503610544278
6559, 1503610544245
6558, 1503610544212
6557, 1503610544179
6556, 1503610544146
6555, 1503610544113
6554, 1503610544080
6553, 1503610544047
6552, 1503610544014
6551, 1503610543981
6550, 1503610543948
6549, 1503610543915
6548, 1503610543882
6547, 1503610543849
6546, 1503610543816
6545, 1503610543783
6544, 1503610543750
6543, 1503610543717
6542, 1503610543684
6541, 1503610543651
6540, 1503610543618
6539, 1503610543585
6538, 1503610543552
6537, 1503610543519
6536, 1503610543486
6535, 1503610543453
6534, 1503610543420
6533, 1503610543387
6532, 1503610543354
6531, 1503610543321
6530, 1503610543288
6529, 1503610543255
6528, 1503610543222
6527, 1503610543189
6526, 1503610543156
6525, 1503610543123
6524, 1503610543090
6523, 1503610543057
6522, 1503610543024
6521, 1503610542991
6520, 1503610542958
6519, 1503610542925
6518, 1503610542892
6517, 1503610542859
6516, 1503610542826
6515, 1503610542793
6514, 1503610542760
6513, 1503610542727
6512, 1503610542694
6511, 1503610542661
6510, 1503610542628
6509, 1503610542595
6508, 1503610542562
6507, 1503610542529
6506, 1503610542496
6505, 1503610542463
6504, 1503610542430
6503, 1503610542397
6502, 1503610542364
6501, 1503610542331
6500, 1503610542298
6499, 1503610542265
6498, 1503610542232
6497, 1503610542199
6496, 1503610542166
6495, 1503610542133
6494, 1503610542100
6493, 1503610542067
6492, 1503610542034
6491, 1503610542001
6490, 1503610541968
6489, 1503610541935
6488, 1503610541902
6487, 1503610541869
6486, 1503610541836
6485, 1503610541803
6484, 1503610541770
6483, 1503610541737
6482, 1503610541704
6481, 1503610541671
6480, 1503610541638
6479, 1503610541605
6478, 1503610541572
6477, 1503610541539
6476, 1503610541506
6475, 1503610541473
6474, 1503610541440
6473, 1503610541407
6472, 1503610541374
6471, 1503610541341
6470, 1503610541308
6469, 1503610541275
6468, 1503610541242
6467, 1503610541209
6466, 1503610541176
6465, 1503610541143
6464, 1503610541110
6463, 1503610541077
6462, 1503610541044
6461, 1503610541011
6460, 1503610540978
6459, 1503610540945
6458, 1503610540912
6457, 1503610540879
6456, 1503610540846
6455, 1503610540813
6454, 1503610540780
6453, 1503610540747
6452, 1503610540714
6451, 1503610540681
6450, 1503610540648
6449, 1503610540615
6448, 1503610540582
6447, 1503610540549
6446, 1503610540516
6445, 1503610540483
6444, 1503610540450
6443, 1503610540417
6442, 1503610540384
6441, 1503610540351
6440, 1503610540318
6439, 1503610540285
6438, 1503610540252
6437, 1503610540219
6436, 1503610540186
6435, 1503610540153
6434, 1503610540120
6433, 1503610540087
6432, 1503610540054
6431, 1503610540021
6430, 1503610539988
6429, 1503610539955
6428, 1503610539922
6427, 1503610539889
6426, 1503610539856
6425, 1503610539823
6424, 1503610539790
6423, 1503610539757
6422, 1503610539724
6421, 1503610539691
6420, 1503610539658
6419, 1503610539625
6418, 1503610539592
6417, 1503610539559
6416, 1503610539526
6415, 1503610539493
6414, 1503610539460
6413, 1503610539427
6412, 1503610539394
6411, 1503610539361
6410, 1503610539328
6409, 1503610539295
6408, 1503610539262
6407, 1503610539229
6406, 1503610539196
6405, 1503610539163
6404, 1503610539130
6403, 1503610539097
6402, 1503610539064
6401, 1503610539031
6400, 1503610538998
6399, 1503610538965
6398, 1503610538932
6397, 1503610538899
6396, 1503610538866
6395, 1503610538833
6394, 1503610538800
6393, 1503610538767
6392, 1503610538734
6391, 1503610538701
6390, 1503610538668
6389, 1503610538635
6388, 1503610538602
6387, 1503610538569
6386, 1503610538536
6385, 1503610538503
6384, 1503610538470
6383, 1503610538437
6382, 1503610538404
6381, 1503610538371
6380, 1503610538338
6379, 1503610538305
6378, 1503610538272
6377, 1503610538239
6376, 1503610538206
6375, 1503610538173
6374, 1503610538140
6373, 1503610538107
6372, 1503610538074
6371, 1503610538041
6370, 1503610538008
6369, 1503610537975
6368, 1503610537942
6367, 1503610537909
6366, 1503610537876
6365, 1503610537843
6364, 1503610537810
6363, 1503610537777
6362, 1503610537744
6361, 1503610537711
6360, 1503610537678
6359, 1503610537645
6358, 1503610537612
6357, 1503610537579
6356, 1503610537546
6355, 1503610537513
6354, 1503610537480
6353, 1503610537447
6352, 1503610537414
6351, 1503610537381
6350, 1503610537348
6349, 1503610537315
6348, 1503610537282
6347, 1503610537249
6346, 1503610537216
6345, 1503610537183
6344, 1503610537150
6343, 1503610537117
6342, 1503610537084
6341, 1503610537051
6340, 1503610537018
6339, 1503610536985
6338, 1503610536952
6337, 1503610536919
6336, 1503610536886
6335, 1503610536853
6334, 1503610536820
6333, 1503610536787
6332, 1503610536754
6331, 1503610536721
6330, 1503610536688
6329, 1503610536655
6328, 1503610536622
6327, 1503610536589
6326, 1503610536556
6325, 1503610536523
6324, 1503610536490
6323, 1503610536457
6322, 1503610536424
6321, 1503610536391
6320, 1503610536358
6319, 1503610536325
6318, 1503610536292
6317, 1503610536259
6316, 1503610536226
6315, 1503610536193
6314, 1503610536160
6313, 1503610536127
6312, 1503610536094
6311, 1503610536061
6310, 1503610536028
6309, 1503610535995
6308, 1503610535962
6307, 1503610535929
6306, 1503610535896
6305, 1503610535863
6304, 1503610535830
6303, 1503610535797
6302, 1503610535764
6301, 1503610535731
6300, 1503610535698
6299, 1503610535665
6298, 1503610535632
6297, 1503610535599
6296, 1503610535566
6295, 1503610535533
6294, 1503610535500
6293, 1503610535467
6292, 1503610535434
6291, 1503610535401
6290, 1503610535368
6289, 1503610535335
6288, 1503610535302
6287, 1503610535269
6286, 1503610535236
6285, 1503610535203
6284, 1503610535170
6283, 1503610535137
6282, 1503610535104
6281, 1503610535071
6280, 1503610535038
6279, 1503610535005
6278, 1503610534972
6277, 1503610534939
6276, 1503610534906
6275, 1503610534873
6274, 1503610534840
6273, 1503610534807
6272, 1503610534774
6271, 1503610534741
6270, 1503610534708
6269, 1503610534675
6268, 1503610534642
6267, 1503610534609
6266, 1503610534576
6265, 1503610534543
6264, 1503610534510
6263, 1503610534477
6262, 1503610534444
6261, 1503610534411
6260, 1503610534378
6259, 1503610534345
6258, 1503610534312
6257, 1503610534279
6256, 1503610534246
6255, 1503610534213
6254, 1503610534180
6253, 1503610534147
6252, 1503610534114
6251, 1503610534081
6250, 1503610534048
6249, 1503610534015
6248, 1503610533982
6247, 1503610533949
6246, 1503610533916
6245, 1503610533883
6244, 1503610533850
6243, 1503610533817
6242, 1503610533784
6241, 1503610533751
6240, 1503610533718
6239, 1503610533685
6238, 1503610533652
6237, 1503610533619
6236, 1503610533586
6235, 1503610533553
6234, 1503610533520
6233, 1503610533487
6232, 1503610533454
6231, 1503610533421
6230, 1503610533388
6229, 1503610533355
6228, 1503610533322
6227, 1503610533289
6226, 1503610533256
6225, 1503610533223
6224, 1503610533190
6223, 1503610533157
6222, 1503610533124
6221, 1503610533091
6220, 1503610533058
6219, 1503610533025
6218, 1503610532992
6217, 1503610532959
6216, 1503610532926
6215, 1503610532893
6214, 1503610532860
6213, 1503610532827
6212, 1503610532794
6211, 1503610532761
6210, 1503610532728
6209, 1503610532695
6208, 1503610532662
6207, 1503610532629
6206, 1503610532596
6205, 1503610532563
6204, 1503610532530
6203, 1503610532497
6202, 1503610532464
6201, 1503610532431
6200, 1503610532398
6199, 1503610532365
6198, 1503610532332
6197, 1503610532299
6196, 1503610532266
6195, 1503610532233
6194, 1503610532200
6193, 1503610532167
6192, 1503610532134
6191, 1503610532101
6190, 1503610532068
6189, 1503610532035
6188, 1503610532002
6187, 1503610531969
6186, 1503610531936
6185, 1503610531903
6184, 1503610531870
6183, 1503610531837
6182, 1503610531804
6181, 1503610531771
6180, 1503610531738
6179, 1503610531705
6178, 1503610531672
6177, 1503610531639
6176, 1503610531606
6175, 1503610531573
6174, 1503610531540
6173, 1503610531507
6172, 1503610531474
6171, 1503610531441
6170, 1503610531408
6169, 1503610531375
6168, 1503610531342
6167, 1503610531309
6166, 1503610531276
6165, 1503610531243
6164, 1503610531210
6163, 1503610531177
6162, 1503610531144
6161, 1503610531111
6160, 1503610531078
6159, 1503610531045
6158, 1503610531012
6157, 1503610530979
6156, 1503610530946
6155, 1503610530913
6154, 1503610530880
6153, 1503610530847
6152, 1503610530814
6151, 1503610530781
6150, 1503610530748
6149, 1503610530715
6148, 1503610530682
6147, 1503610530649
6146, 1503610530616
6145, 1503610530583
6144, 1503610530550
6143, 1503610530517
6142, 1503610530484
6141, 1503610530451
6140, 1503610530418
6139, 1503610530385
6138, 1503610530352
6137, 1503610530319
6136, 1503610530286
6135, 1503610530253
6134, 1503610530220
6133, 1503610530187
6132, 1503610530154
6131, 1503610530121
6130, 1503610530088
6129, 1503610530055
6128, 1503610530022
6127, 1503610529989
6126, 1503610529956
6125, 1503610529923
6124, 1503610529890
6123, 1503610529857
6122, 1503610529824
6121, 1503610529791
6120, 1503610529758
6119, 1503610529725
6118, 1503610529692
6117, 1503610529659
6116, 1503610529626
6115, 1503610529593
6114, 1503610529560
6113, 1503610529527
6112, 1503610529494
6111, 1503610529461
6110, 1503610529428
6109, 1503610529395
6108, 1503610529362
6107, 1503610529329
6106, 1503610529296
6105, 1503610529263
6104, 1503610529230
6103, 1503610529197
6102, 1503610529164
6101, 1503610529131
6100, 1503610529098
6099, 1503610529065
6098, 1503610529032
6097, 1503610528999
6096, 1503610528966
6095, 1503610528933
6094, 1503610528900
6093, 1503610528867
6092, 1503610528834
6091, 1503610528801
6090, 1503610528768
6089, 1503610528735
6088, 1503610528702
6087, 1503610528669
6086, 1503610528636
6085, 1503610528603
6084, 1503610528570
6083, 1503610528537
6082, 1503610528504
6081, 1503610528471
6080, 1503610528438
6079, 1503610528405
6078, 1503610528372
6077, 1503610528339
6076, 1503610528306
6075, 1503610528273
6074, 1503610528240
6073, 1503610528207
6072, 1503610528174
6071, 1503610528141
6070, 1503610528108
6069, 1503610528075
6068, 1503610528042
6067, 1503610528009
6066, 1503610527976
6065, 1503610527943
6064, 1503610527910
6063, 1503610527877
6062, 1503610527844
6061, 1503610527811
6060, 1503610527778
6059, 1503610527745
6058, 1503610527712
6057, 1503610527679
6056, 1503610527646
6055, 1503610527613
6054, 1503610527580
6053, 1503610527547
6052, 1503610527514
6051, 1503610527481
6050, 1503610527448
6049, 1503610527415
6048, 1503610527382
6047, 1503610527349
6046, 1503610527316
6045, 1503610527283
6044, 1503610527250
6043, 1503610527217
6042, 1503610527184
6041, 1503610527151
6040, 1503610527118
6039, 1503610527085
6038, 1503610527052
6037, 1503610527019
6036, 1503610526986
6035, 1503610526953
6034, 1503610526920
6033, 1503610526887
6032, 1503610526854
6031, 1503610526821
6030, 1503610526788
6029, 1503610526755
6028, 1503610526722
6027, 1503610526689
6026, 1503610526656
6025, 1503610526623
6024, 1503610526590
6023, 1503610526557
6022, 1503610526524
6021, 1503610526491
6020, 1503610526458
6019, 1503610526425
6018, 1503610526392
6017, 1503610526359
6016, 1503610526326
6015, 1503610526293
6014, 1503610526260
6013, 1503610526227
6012, 1503610526194
6011, 1503610526161
6010, 1503610526128
6009, 1503610526095
6008, 1503610526062
6007, 1503610526029
6006, 1503610525996
6005, 1503610525963
6004, 1503610525930
6003, 1503610525897
6002, 1503610525864
6001, 1503610525831
6000, 1503610525798
5999, 1503610525765
5998, 1503610525732
5997, 1503610525699
5996, 1503610525666
5995, 1503610525633
5994, 1503610525600
5993, 1503610525567
5992, 1503610525534
5991, 1503610525501
5990, 1503610525468
5989, 1503610525435
5988, 1503610525402
5987, 1503610525369
5986, 1503610525336
5985, 1503610525303
5984, 1503610525270
5983, 1503610525237
5982, 1503610525204
5981, 1503610525171
5980, 1503610525138
5979, 1503610525105
5978, 1503610525072
5977, 1503610525039
5976, 1503610525006
5975, 1503610524973
5974, 1503610524940
5973, 1503610524907
5972, 1503610524874
5971, 1503610524841
5970, 1503610524808
5969, 1503610524775
5968, 1503610524742
5967, 1503610524709
5966, 1503610524676
5965, 1503610524643
5964, 1503610524610
5963, 1503610524577
5962, 1503610524544
5961, 1503610524511
5960, 1503610524478
5959, 1503610524445
5958, 1503610524412
5957, 1503610524379
5956, 1503610524346
5955, 1503610524313
5954, 1503610524280
5953, 1503610524247
5952, 1503610524214
5951, 1503610524181
5950, 1503610524148
5949, 1503610524115
5948, 1503610524082
5947, 1503610524049
5946, 1503610524016
5945, 1503610523983
5944, 1503610523950
5943, 1503610523917
5942, 1503610523884
5941, 1503610523851
5940, 1503610523818
5939, 1503610523785
5938, 1503610523752
5937, 1503610523719
5936, 1503610523686
5935, 1503610523653
5934, 1503610523620
5933, 1503610523587
5932, 1503610523554
5931, 1503610523521
5930, 1503610523488
5929, 1503610523455
5928, 1503610523422
5927, 1503610523389
5926, 1503610523356
5925, 1503610523323
5924, 1503610523290
5923, 1503610523257
5922, 1503610523224
5921, 1503610523191
5920, 1503610523158
5919, 1503610523125
5918, 1503610523092
5917, 1503610523059
5916, 1503610523026
5915, 1503610522993
5914, 1503610522960
5913, 1503610522927
5912, 1503610522894
5911, 1503610522861
5910, 1503610522828
5909, 1503610522795
5908, 1503610522762
5907, 1503610522729
5906, 1503610522696
5905, 1503610522663
5904, 1503610522630
5903, 1503610522597
5902, 1503610522564
5901, 1503610522531
5900, 1503610522498
5899, 1503610522465
5898, 1503610522432
5897, 1503610522399
5896, 1503610522366
5895, 1503610522333
5894, 1503610522300
5893, 1503610522267
5892, 1503610522234
5891, 1503610522201
5890, 1503610522168
5889, 1503610522135
5888, 1503610522102
5887, 1503610522069
5886, 1503610522036
5885, 1503610522003
5884, 1503610521970
5883, 1503610521937
5882, 1503610521904
5881, 1503610521871
5880, 1503610521838
5879, 1503610521805
5878, 1503610521772
5877, 1503610521739
5876, 1503610521706
5875, 1503610521673
5874, 1503610521640
5873, 1503610521607
5872, 1503610521574
5871, 1503610521541
5870, 1503610521508
5869, 1503610521475
5868, 1503610521442
5867, 1503610521409
5866, 1503610521376
5865, 1503610521343
5864, 1503610521310
5863, 1503610521277
5862, 1503610521244
5861, 1503610521211
5860, 1503610521178
5859, 1503610521145
5858, 1503610521112
5857, 1503610521079
5856, 1503610521046
5855, 1503610521013
5854, 1503610520980
5853, 1503610520947
5852, 1503610520914
5851, 1503610520881
5850, 1503610520848
5849, 1503610520815
5848, 1503610520782
5847, 1503610520749
5846, 1503610520716
5845, 1503610520683
5844, 1503610520650
5843, 1503610520617
5842, 1503610520584
5841, 1503610520551
5840, 1503610520518
5839, 1503610520485
5838, 1503610520452
5837, 1503610520419
5836, 1503610520386
5835, 1503610520353
5834, 1503610520320
5833, 1503610520287
5832, 1503610520254
5831, 1503610520221
5830, 1503610520188
5829, 1503610520155
5828, 1503610520122
5827, 1503610520089
5826, 1503610520056
5825, 1503610520023
5824, 1503610519990
5823, 1503610519957
5822, 1503610519924
5821, 1503610519891
5820, 1503610519858
5819, 1503610519825
5818, 1503610519792
5817, 1503610519759
5816, 1503610519726
5815, 1503610519693
5814, 1503610519660
5813, 1503610519627
5812, 1503610519594
5811, 1503610519561
5810, 1503610519528
5809, 1503610519495
5808, 1503610519462
5807, 1503610519429
5806, 1503610519396
5805, 1503610519363
5804, 1503610519330
5803, 1503610519297
5802, 1503610519264
5801, 1503610519231
5800, 1503610519198
5799, 1503610519165
5798, 1503610519132
5797, 1503610519099
5796, 1503610519066
5795, 1503610519033
5794, 1503610519000
5793, 1503610518967
5792, 1503610518934
5791, 1503610518901
5790, 1503610518868
5789, 1503610518835
5788, 1503610518802
5787, 1503610518769
5786, 1503610518736
5785, 1503610518703
5784, 1503610518670
5783, 1503610518637
5782, 1503610518604
5781, 1503610518571
5780, 1503610518538
5779, 1503610518505
5778, 1503610518472
5777, 1503610518439
5776, 1503610518406
5775, 1503610518373
5774, 1503610518340
5773, 1503610518307
5772, 1503610518274
5771, 1503610518241
5770, 1503610518208
5769, 1503610518175
5768, 1503610518142
5767, 1503610518109
5766, 1503610518076
5765, 1503610518043
5764, 1503610518010
5763, 1503610517977
5762, 1503610517944
5761, 1503610517911
5760, 1503610517878
5759, 1503610517845
5758, 1503610517812
5757, 1503610517779
5756, 1503610517746
5755, 1503610517713
5754, 1503610517680
5753, 1503610517647
5752, 1503610517614
5751, 1503610517581
5750, 1503610517548
5749, 1503610517515
5748, 1503610517482
5747, 1503610517449
5746, 1503610517416
5745, 1503610517383
5744, 1503610517350
5743, 1503610517317
5742, 1503610517284
5741, 1503610517251
5740, 1503610517218
5739, 1503610517185
5738, 1503610517152
5737, 1503610517119
5736, 1503610517086
5735, 1503610517053
5734, 1503610517020
5733, 1503610516987
5732, 1503610516954
5731, 1503610516921
5730, 1503610516888
5729, 1503610516855
5728, 1503610516822
5727, 1503610516789
5726, 1503610516756
5725, 1503610516723
5724, 1503610516690
5723, 1503610516657
5722, 1503610516624
5721, 1503610516591
5720, 1503610516558
5719, 1503610516525
5718, 1503610516492
5717, 1503610516459
5716, 1503610516426
5715, 1503610516393
5714, 1503610516360
5713, 1503610516327
5712, 1503610516294
5711, 1503610516261
5710, 1503610516228
5709, 1503610516195
5708, 1503610516162
5707, 1503610516129
5706, 1503610516096
5705, 1503610516063
5704, 1503610516030
5703, 1503610515997
5702, 1503610515964
5701, 1503610515931
5700, 1503610515898
5699, 1503610515865
5698, 1503610515832
5697, 1503610515799
5696, 1503610515766
5695, 1503610515733
5694, 1503610515700
5693, 1503610515667
5692, 1503610515634
5691, 1503610515601
5690, 1503610515568
5689, 1503610515535
5688, 1503610515502
5687, 1503610515469
5686, 1503610515436
5685, 1503610515403
5684, 1503610515370
5683, 1503610515337
5682, 1503610515304
5681, 1503610515271
5680, 1503610515238
5679, 1503610515205
5678, 1503610515172
5677, 1503610515139
5676, 1503610515106
5675, 1503610515073
5674, 1503610515040
5673, 1503610515007
5672, 1503610514974
5671, 1503610514941
5670, 1503610514908
5669, 1503610514875
5668, 1503610514842
5667, 1503610514809
5666, 1503610514776
5665, 1503610514743
5664, 1503610514710
5663, 1503610514677
5662, 1503610514644
5661, 1503610514611
5660, 1503610514578
5659, 1503610514545
5658, 1503610514512
5657, 1503610514479
5656, 1503610514446
5655, 1503610514413
5654, 1503610514380
5653, 1503610514347
5652, 1503610514314
5651, 1503610514281
5650, 1503610514248
5649, 1503610514215
5648, 1503610514182
5647, 1503610514149
5646, 1503610514116
5645, 1503610514083
5644, 1503610514050
5643, 1503610514017
5642, 1503610513984
5641, 1503610513951
5640, 1503610513918
5639, 1503610513885
5638, 1503610513852
5637, 1503610513819
5636, 1503610513786
5635, 1503610513753
5634, 1503610513720
5633, 1503610513687
5632, 1503610513654
5631, 1503610513621
5630, 1503610513588
5629, 1503610513555
5628, 1503610513522
5627, 1503610513489
5626, 1503610513456
5625, 1503610513423
5624, 1503610513390
5623, 1503610513357
5622, 1503610513324
5621, 1503610513291
5620, 1503610513258
5619, 1503610513225
5618, 1503610513192
5617, 1503610513159
5616, 1503610513126
5615, 1503610513093
5614, 1503610513060
5613, 1503610513027
5612, 1503610512994
5611, 1503610512961
5610, 1503610512928
5609, 1503610512895
5608, 1503610512862
5607, 1503610512829
5606, 1503610512796
5605, 1503610512763
5604, 1503610512730
5603, 1503610512697
5602, 1503610512664
5601, 1503610512631
5600, 1503610512598
5599, 1503610512565
5598, 1503610512532
5597, 1503610512499
5596, 1503610512466
5595, 1503610512433
5594, 1503610512400
5593, 1503610512367
5592, 1503610512334
5591, 1503610512301
5590, 1503610512268
5589, 1503610512235
5588, 1503610512202
5587, 1503610512169
5586, 1503610512136
5585, 1503610512103
5584, 1503610512070
5583, 1503610512037
5582, 1503610512004
5581, 1503610511971
5580, 1503610511938
5579, 1503610511905
5578, 1503610511872
5577, 1503610511839
5576, 1503610511806
5575, 1503610511773
5574, 1503610511740
5573, 1503610511707
5572, 1503610511674
5571, 1503610511641
5570, 1503610511608
5569, 1503610511575
5568, 1503610511542
5567, 1503610511509
5566, 1503610511476
5565, 1503610511443
5564, 1503610511410
5563, 1503610511377
5562, 1503610511344
5561, 1503610511311
5560, 1503610511278
5559, 1503610511245
5558, 1503610511212
5557, 1503610511179
5556, 1503610511146
5555, 1503610511113
5554, 1503610511080
5553, 1503610511047
5552, 1503610511014
5551, 1503610510981
5550, 1503610510948
5549, 1503610510915
5548, 1503610510882
5547, 1503610510849
5546, 1503610510816
5545, 1503610510783
5544, 1503610510750
5543, 1503610510717
5542, 1503610510684
5541, 1503610510651
5540, 1503610510618
5539, 1503610510585
5538, 1503610510552
5537, 1503610510519
5536, 1503610510486
5535, 1503610510453
5534, 1503610510420
5533, 1503610510387
5532, 1503610510354
5531, 1503610510321
5530, 1503610510288
5529, 1503610510255
5528, 1503610510222
5527, 1503610510189
5526, 1503610510156
5525, 1503610510123
5524, 1503610510090
5523, 1503610510057
5522, 1503610510024
5521, 1503610509991
5520, 1503610509958
5519, 1503610509925
5518, 1503610509892
5517, 1503610509859
5516, 1503610509826
5515, 1503610509793
5514, 1503610509760
5513, 1503610509727
5512, 1503610509694
5511, 1503610509661
5510, 1503610509628
5509, 1503610509595
5508, 1503610509562
5507, 1503610509529
5506, 1503610509496
5505, 1503610509463
5504, 1503610509430
5503, 1503610509397
5502, 1503610509364
5501, 1503610509331
5500, 1503610509298
5499, 1503610509265
5498, 1503610509232
5497, 1503610509199
5496, 1503610509166
5495, 1503610509133
5494, 1503610509100
5493, 1503610509067
5492, 1503610509034
5491, 1503610509001
5490, 1503610508968
5489, 1503610508935
5488, 1503610508902
5487, 1503610508869
5486, 1503610508836
5485, 1503610508803
5484, 1503610508770
5483, 1503610508737
5482, 1503610508704
5481, 1503610508671
5480, 1503610508638
5479, 1503610508605
5478, 1503610508572
5477, 1503610508539
5476, 1503610508506
5475, 1503610508473
5474, 1503610508440
5473, 1503610508407
5472, 1503610508374
5471, 1503610508341
5470, 1503610508308
5469, 1503610508275
5468, 1503610508242
5467, 1503610508209
5466, 1503610508176
5465, 1503610508143
5464, 1503610508110
5463, 1503610508077
5462, 1503610508044
5461, 1503610508011
5460, 1503610507978
5459, 1503610507945
5458, 1503610507912
5457, 1503610507879
5456, 1503610507846
5455, 1503610507813
5454, 1503610507780
5453, 1503610507747
5452, 1503610507714
5451, 1503610507681
5450, 1503610507648
5449, 1503610507615
5448, 1503610507582
5447, 1503610507549
5446, 1503610507516
5445, 1503610507483
5444, 1503610507450
5443, 1503610507417
5442, 1503610507384
5441, 1503610507351
5440, 1503610507318
5439, 1503610507285
5438, 1503610507252
5437, 1503610507219
5436, 1503610507186
5435, 1503610507153
5434, 1503610507120
5433, 1503610507087
5432, 1503610507054
5431, 1503610507021
5430, 1503610506988
5429, 1503610506955
5428, 1503610506922
5427, 1503610506889
5426, 1503610506856
5425, 1503610506823
5424, 1503610506790
5423, 1503610506757
5422, 1503610506724
5421, 1503610506691
5420, 1503610506658
5419, 1503610506625
5418, 1503610506592
5417, 1503610506559
5416, 1503610506526
5415, 1503610506493
5414, 1503610506460
5413, 1503610506427
5412, 1503610506394
5411, 1503610506361
5410, 1503610506328
5409, 1503610506295
5408, 1503610506262
5407, 1503610506229
5406, 1503610506196
5405, 1503610506163
5404, 1503610506130
5403, 1503610506097
5402, 1503610506064
5401, 1503610506031
5400, 1503610505998
5399, 1503610505965
5398, 1503610505932
5397, 1503610505899
5396, 1503610505866
5395, 1503610505833
5394, 1503610505800
5393, 1503610505767
5392, 1503610505734
5391, 1503610505701
5390, 1503610505668
5389, 1503610505635
5388, 1503610505602
5387, 1503610505569
5386, 1503610505536
5385, 1503610505503
5384, 1503610505470
5383, 1503610505437
5382, 1503610505404
5381, 1503610505371
5380, 1503610505338
5379, 1503610505305
5378, 1503610505272
5377, 1503610505239
5376, 1503610505206
5375, 1503610505173
5374, 1503610505140
5373, 1503610505107
5372, 1503610505074
5371, 1503610505041
5370, 1503610505008
5369, 1503610504975
5368, 1503610504942
5367, 1503610504909
5366, 1503610504876
5365, 1503610504843
5364, 1503610504810
5363, 1503610504777
5362, 1503610504744
5361, 1503610504711
5360, 1503610504678
5359, 1503610504645
5358, 1503610504612
5357, 1503610504579
5356, 1503610504546
5355, 1503610504513
5354, 1503610504480
5353, 1503610504447
5352, 1503610504414
5351, 1503610504381
5350, 1503610504348
5349, 1503610504315
5348, 1503610504282
5347, 1503610504249
5346, 1503610504216
5345, 1503610504183
5344, 1503610504150
5343, 1503610504117
5342, 1503610504084
5341, 1503610504051
5340, 1503610504018
5339, 1503610503985
5338, 1503610503952
5337, 1503610503919
5336, 1503610503886
5335, 1503610503853
5334, 1503610503820
5333, 1503610503787
5332, 1503610503754
5331, 1503610503721
5330, 1503610503688
5329, 1503610503655
5328, 1503610503622
5327, 1503610503589
5326, 1503610503556
5325, 1503610503523
5324, 1503610503490
5323, 1503610503457
5322, 1503610503424
5321, 1503610503391
5320, 1503610503358
5319, 1503610503325
5318, 1503610503292
5317, 1503610503259
5316, 1503610503226
5315, 1503610503193
5314, 1503610503160
5313, 1503610503127
5312, 1503610503094
5311, 1503610503061
5310, 1503610503028
5309, 1503610502995
5308, 1503610502962
5307, 1503610502929
5306, 1503610502896
5305, 1503610502863
5304, 1503610502830
5303, 1503610502797
5302, 1503610502764
5301, 1503610502731
5300, 1503610502698
5299, 1503610502665
5298, 1503610502632
5297, 1503610502599
5296, 1503610502566
5295, 1503610502533
5294, 1503610502500
5293, 1503610502467
5292, 1503610502434
5291, 1503610502401
5290, 1503610502368
5289, 1503610502335
5288, 1503610502302
5287, 1503610502269
5286, 1503610502236
5285, 1503610502203
5284, 1503610502170
5283, 1503610502137
5282, 1503610502104
5281, 1503610502071
5280, 1503610502038
5279, 1503610502005
5278, 1503610501972
5277, 1503610501939
5276, 1503610501906
5275, 1503610501873
5274, 1503610501840
5273, 1503610501807
5272, 1503610501774
5271, 1503610501741
5270, 1503610501708
5269, 1503610501675
5268, 1503610501642
5267, 1503610501609
5266, 1503610501576
5265, 1503610501543
5264, 1503610501510
5263, 1503610501477
5262, 1503610501444
5261, 1503610501411
5260, 1503610501378
5259, 1503610501345
5258, 1503610501312
5257, 1503610501279
5256, 1503610501246
5255, 1503610501213
5254, 1503610501180
5253, 1503610501147
5252, 1503610501114
5251, 1503610501081
5250, 1503610501048
5249, 1503610501015
5248, 1503610500982
5247, 1503610500949
5246, 1503610500916
5245, 1503610500883
5244, 1503610500850
5243, 1503610500817
5242, 1503610500784
5241, 1503610500751
5240, 1503610500718
5239, 1503610500685
5238, 1503610500652
5237, 1503610500619
5236, 1503610500586
5235, 1503610500553
5234, 1503610500520
5233, 1503610500487
5232, 1503610500454
5231, 1503610500421
5230, 1503610500388
5229, 1503610500355
5228, 1503610500322
5227, 1503610500289
5226, 1503610500256
5225, 1503610500223
5224, 1503610500190
5223, 1503610500157
5222, 1503610500124
5221, 1503610500091
5220, 1503610500058
5219, 1503610500025
5218, 1503610499992
5217, 1503610499959
5216, 1503610499926
5215, 1503610499893
5214, 1503610499860
5213, 1503610499827
5212, 1503610499794
5211, 1503610499761
5210, 1503610499728
5209, 1503610499695
5208, 1503610499662
5207, 1503610499629
5206, 1503610499596
5205, 1503610499563
5204, 1503610499530
5203, 1503610499497
5202, 1503610499464
5201, 1503610499431
5200, 1503610499398
5199, 1503610499365
5198, 1503610499332
5197, 1503610499299
5196, 1503610499266
5195, 1503610499233
5194, 1503610499200
5193, 1503610499167
5192, 1503610499134
5191, 1503610499101
5190, 1503610499068
5189, 1503610499035
5188, 1503610499002
5187, 1503610498969
5186, 1503610498936
5185, 1503610498903
5184, 1503610498870
5183, 1503610498837
5182, 1503610498804
5181, 1503610498771
5180, 1503610498738
5179, 1503610498705
5178, 1503610498672
5177, 1503610498639
5176, 1503610498606
5175, 1503610498573
5174, 1503610498540
5173, 1503610498507
5172, 1503610498474
5171, 1503610498441
5170, 1503610498408
5169, 1503610498375
5168, 1503610498342
5167, 1503610498309
5166, 1503610498276
5165, 1503610498243
5164, 1503610498210
5163, 1503610498177
5162, 1503610498144
5161, 1503610498111
5160, 1503610498078
5159, 1503610498045
5158, 1503610498012
5157, 1503610497979
5156, 1503610497946
5155, 1503610497913
5154, 1503610497880
5153, 1503610497847
5152, 1503610497814
5151, 1503610497781
5150, 1503610497748
5149, 1503610497715
5148, 1503610497682
5147, 1503610497649
5146, 1503610497616
5145, 1503610497583
5144, 1503610497550
5143, 1503610497517
5142, 1503610497484
5141, 1503610497451
5140, 1503610497418
5139, 1503610497385
5138, 1503610497352
5137, 1503610497319
5136, 1503610497286
5135, 1503610497253
5134, 1503610497220
5133, 1503610497187
5132, 1503610497154
5131, 1503610497121
5130, 1503610497088
5129, 1503610497055
5128, 1503610497022
5127, 1503610496989
5126, 1503610496956
5125, 1503610496923
5124, 1503610496890
5123, 1503610496857
5122, 1503610496824
5121, 1503610496791
5120, 1503610496758
5119, 1503610496725
5118, 1503610496692
5117, 1503610496659
5116, 1503610496626
5115, 1503610496593
5114, 1503610496560
5113, 1503610496527
5112, 1503610496494
5111, 1503610496461
5110, 1503610496428
5109, 1503610496395
5108, 1503610496362
5107, 1503610496329
5106, 1503610496296
5105, 1503610496263
5104, 1503610496230
5103, 1503610496197
5102, 1503610496164
5101, 1503610496131
5100, 1503610496098
5099, 1503610496065
5098, 1503610496032
5097, 1503610495999
5096, 1503610495966
5095, 1503610495933
5094, 1503610495900
5093, 1503610495867
5092, 1503610495834
5091, 1503610495801
5090, 1503610495768
5089, 1503610495735
5088, 1503610495702
5087, 1503610495669
5086, 1503610495636
5085, 1503610495603
5084, 1503610495570
5083, 1503610495537
5082, 1503610495504
5081, 1503610495471
5080, 1503610495438
5079, 1503610495405
5078, 1503610495372
5077, 1503610495339
5076, 1503610495306
5075, 1503610495273
5074, 1503610495240
5073, 1503610495207
5072, 1503610495174
5071, 1503610495141
5070, 1503610495108
5069, 1503610495075
5068, 1503610495042
5067, 1503610495009
5066, 1503610494976
5065, 1503610494943
5064, 1503610494910
5063, 1503610494877
5062, 1503610494844
5061, 1503610494811
5060, 1503610494778
5059, 1503610494745
5058, 1503610494712
5057, 1503610494679
5056, 1503610494646
5055, 1503610494613
5054, 1503610494580
5053, 1503610494547
5052, 1503610494514
5051, 1503610494481
5050, 1503610494448
5049, 1503610494415
5048, 1503610494382
5047, 1503610494349
5046, 1503610494316
5045, 1503610494283
5044, 1503610494250
5043, 1503610494217
5042, 1503610494184
5041, 1503610494151
5040, 1503610494118
5039, 1503610494085
5038, 1503610494052
5037, 1503610494019
5036, 1503610493986
5035, 1503610493953
5034, 1503610493920
5033, 1503610493887
5032, 1503610493854
5031, 1503610493821
5030, 1503610493788
5029, 1503610493755
5028, 1503610493722
5027, 1503610493689
5026, 1503610493656
5025, 1503610493623
5024, 1503610493590
5023, 1503610493557
5022, 1503610493524
5021, 1503610493491
5020, 1503610493458
5019, 1503610493425
5018, 1503610493392
5017, 1503610493359
5016, 1503610493326
5015, 1503610493293
5014, 1503610493260
5013, 1503610493227
5012, 1503610493194
5011, 1503610493161
5010, 1503610493128
5009, 1503610493095
5008, 1503610493062
5007, 1503610493029
5006, 1503610492996
5005, 1503610492963
5004, 1503610492930
5003, 1503610492897
5002, 1503610492864
5001, 1503610492831
5000, 1503610492798
4999, 1503610492765
4998, 1503610492732
4997, 1503610492699
4996, 1503610492666
4995, 1503610492633
4994, 1503610492600
4993, 1503610492567
4992, 1503610492534
4991, 1503610492501
4990, 1503610492468
4989, 1503610492435
4988, 1503610492402
4987, 1503610492369
4986, 1503610492336
4985, 1503610492303
4984, 1503610492270
4983, 1503610492237
4982, 1503610492204
4981, 1503610492171
4980, 1503610492138
4979, 1503610492105
4978, 1503610492072
4977, 1503610492039
4976, 1503610492006
4975, 1503610491973
4974, 1503610491940
4973, 1503610491907
4972, 1503610491874
4971, 1503610491841
4970, 1503610491808
4969, 1503610491775
4968, 1503610491742
4967, 1503610491709
4966, 1503610491676
4965, 1503610491643
4964, 1503610491610
4963, 1503610491577
4962, 1503610491544
4961, 1503610491511
4960, 1503610491478
4959, 1503610491445
4958, 1503610491412
4957, 1503610491379
4956, 1503610491346
4955, 1503610491313
4954, 1503610491280
4953, 1503610491247
4952, 1503610491214
4951, 1503610491181
4950, 1503610491148
4949, 1503610491115
4948, 1503610491082
4947, 1503610491049
4946, 1503610491016
4945, 1503610490983
4944, 1503610490950
4943, 1503610490917
4942, 1503610490884
4941, 1503610490851
4940, 1503610490818
4939, 1503610490785
4938, 1503610490752
4937, 1503610490719
4936, 1503610490686
4935, 1503610490653
4934, 1503610490620
4933, 1503610490587
4932, 1503610490554
4931, 1503610490521
4930, 1503610490488
4929, 1503610490455
4928, 1503610490422
4927, 1503610490389
4926, 1503610490356
4925, 1503610490323
4924, 1503610490290
4923, 1503610490257
4922, 1503610490224
4921, 1503610490191
4920, 1503610490158
4919, 1503610490125
4918, 1503610490092
4917, 1503610490059
4916, 1503610490026
4915, 1503610489993
4914, 1503610489960
4913, 1503610489927
4912, 1503610489894
4911, 1503610489861
4910, 1503610489828
4909, 1503610489795
4908, 1503610489762
4907, 1503610489729
4906, 1503610489696
4905, 1503610489663
4904, 1503610489630
4903, 1503610489597
4902, 1503610489564
4901, 1503610489531
4900, 1503610489498
4899, 1503610489465
4898, 1503610489432
4897, 1503610489399
4896, 1503610489366
4895, 1503610489333
4894, 1503610489300
4893, 1503610489267
4892, 1503610489234
4891, 1503610489201
4890, 1503610489168
4889, 1503610489135
4888, 1503610489102
4887, 1503610489069
4886, 1503610489036
4885, 1503610489003
4884, 1503610488970
4883, 1503610488937
4882, 1503610488904
4881, 1503610488871
4880, 1503610488838
4879, 1503610488805
4878, 1503610488772
4877, 1503610488739
4876, 1503610488706
4875, 1503610488673
4874, 1503610488640
4873, 1503610488607
4872, 1503610488574
4871, 1503610488541
4870, 1503610488508
4869, 1503610488475
4868, 1503610488442
4867, 1503610488409
4866, 1503610488376
4865, 1503610488343
4864, 1503610488310
4863, 1503610488277
4862, 1503610488244
4861, 1503610488211
4860, 1503610488178
4859, 1503610488145
4858, 1503610488112
4857, 1503610488079
4856, 1503610488046
4855, 1503610488013
4854, 1503610487980
4853, 1503610487947
4852, 1503610487914
4851, 1503610487881
4850, 1503610487848
4849, 1503610487815
4848, 1503610487782
4847, 1503610487749
4846, 1503610487716
4845, 1503610487683
4844, 1503610487650
4843, 1503610487617
4842, 1503610487584
4841, 1503610487551
4840, 1503610487518
4839, 1503610487485
4838, 1503610487452
4837, 1503610487419
4836, 1503610487386
4835, 1503610487353
4834, 1503610487320
4833, 1503610487287
4832, 1503610487254
4831, 1503610487221
4830, 1503610487188
4829, 1503610487155
4828, 1503610487122
4827, 1503610487089
4826, 1503610487056
4825, 1503610487023
4824, 1503610486990
4823, 1503610486957
4822, 1503610486924
4821, 1503610486891
4820, 1503610486858
4819, 1503610486825
4818, 1503610486792
4817, 1503610486759
4816, 1503610486726
4815, 1503610486693
4814, 1503610486660
4813, 1503610486627
4812, 1503610486594
4811, 1503610486561
4810, 1503610486528
4809, 1503610486495
4808, 1503610486462
4807, 1503610486429
4806, 1503610486396
4805, 1503610486363
4804, 1503610486330
4803, 1503610486297
4802, 1503610486264
4801, 1503610486231
4800, 1503610486198
4799, 1503610486165
4798, 1503610486132
4797, 1503610486099
4796, 1503610486066
4795, 1503610486033
4794, 1503610486000
4793, 1503610485967
4792, 1503610485934
4791, 1503610485901
4790, 1503610485868
4789, 1503610485835
4788, 1503610485802
4787, 1503610485769
4786, 1503610485736
4785, 1503610485703
4784, 1503610485670
4783, 1503610485637
4782, 1503610485604
4781, 1503610485571
4780, 1503610485538
4779, 1503610485505
4778, 1503610485472
4777, 1503610485439
4776, 1503610485406
4775, 1503610485373
4774, 1503610485340
4773, 1503610485307
4772, 1503610485274
4771, 1503610485241
4770, 1503610485208
4769, 1503610485175
4768, 1503610485142
4767, 1503610485109
4766, 1503610485076
4765, 1503610485043
4764, 1503610485010
4763, 1503610484977
4762, 1503610484944
4761, 1503610484911
4760, 1503610484878
4759, 1503610484845
4758, 1503610484812
4757, 1503610484779
4756, 1503610484746
4755, 1503610484713
4754, 1503610484680
4753, 1503610484647
4752, 1503610484614
4751, 1503610484581
4750, 1503610484548
4749, 1503610484515
4748, 1503610484482
4747, 1503610484449
4746, 1503610484416
4745, 1503610484383
4744, 1503610484350
4743, 1503610484317
4742, 1503610484284
4741, 1503610484251
4740, 1503610484218
4739, 1503610484185
4738, 1503610484152
4737, 1503610484119
4736, 1503610484086
4735, 1503610484053
4734, 1503610484020
4733, 1503610483987
4732, 1503610483954
4731, 1503610483921
4730, 1503610483888
4729, 1503610483855
4728, 1503610483822
4727, 1503610483789
4726, 1503610483756
4725, 1503610483723
4724, 1503610483690
4723, 1503610483657
4722, 1503610483624
4721, 1503610483591
4720, 1503610483558
4719, 1503610483525
4718, 1503610483492
4717, 1503610483459
4716, 1503610483426
4715, 1503610483393
4714, 1503610483360
4713, 1503610483327
4712, 1503610483294
4711, 1503610483261
4710, 1503610483228
4709, 1503610483195
4708, 1503610483162
4707, 1503610483129
4706, 1503610483096
4705, 1503610483063
4704, 1503610483030
4703, 1503610482997
4702, 1503610482964
4701, 1503610482931
4700, 1503610482898
4699, 1503610482865
4698, 1503610482832
4697, 1503610482799
4696, 1503610482766
4695, 1503610482733
4694, 1503610482700
4693, 1503610482667
4692, 1503610482634
4691, 1503610482601
4690, 1503610482568
4689, 1503610482535
4688, 1503610482502
4687, 1503610482469
4686, 1503610482436
4685, 1503610482403
4684, 1503610482370
4683, 1503610482337
4682, 1503610482304
4681, 1503610482271
4680, 1503610482238
4679, 1503610482205
4678, 1503610482172
4677, 1503610482139
4676, 1503610482106
4675, 1503610482073
4674, 1503610482040
4673, 1503610482007
4672, 1503610481974
4671, 1503610481941
4670, 1503610481908
4669, 1503610481875
4668, 1503610481842
4667, 1503610481809
4666, 1503610481776
4665, 1503610481743
4664, 1503610481710
4663, 1503610481677
4662, 1503610481644
4661, 1503610481611
4660, 1503610481578
4659, 1503610481545
4658, 1503610481512
4657, 1503610481479
4656, 1503610481446
4655, 1503610481413
4654, 1503610481380
4653, 1503610481347
4652, 1503610481314
4651, 1503610481281
4650, 1503610481248
4649, 1503610481215
4648, 1503610481182
4647, 1503610481149
4646, 1503610481116
4645, 1503610481083
4644, 1503610481050
4643, 1503610481017
4642, 1503610480984
4641, 1503610480951
4640, 1503610480918
4639, 1503610480885
4638, 1503610480852
4637, 1503610480819
4636, 1503610480786
4635, 1503610480753
4634, 1503610480720
4633, 1503610480687
4632, 1503610480654
4631, 1503610480621
4630, 1503610480588
4629, 1503610480555
4628, 1503610480522
4627, 1503610480489
4626, 1503610480456
4625, 1503610480423
4624, 1503610480390
4623, 1503610480357
4622, 1503610480324
4621, 1503610480291
4620, 1503610480258
4619, 1503610480225
4618, 1503610480192
4617, 1503610480159
4616, 1503610480126
4615, 1503610480093
4614, 1503610480060
4613, 1503610480027
4612, 1503610479994
4611, 1503610479961
4610, 1503610479928
4609, 1503610479895
4608, 1503610479862
4607, 1503610479829
4606, 1503610479796
4605, 1503610479763
4604, 1503610479730
4603, 1503610479697
4602, 1503610479664
4601, 1503610479631
4600, 1503610479598
4599, 1503610479565
4598, 1503610479532
4597, 1503610479499
4596, 1503610479466
4595, 1503610479433
4594, 1503610479400
4593, 1503610479367
4592, 1503610479334
4591, 1503610479301
4590, 1503610479268
4589, 1503610479235
4588, 1503610479202
4587, 1503610479169
4586, 1503610479136
4585, 1503610479103
4584, 1503610479070
4583, 1503610479037
4582, 1503610479004
4581, 1503610478971
4580, 1503610478938
4579, 1503610478905
4578, 1503610478872
4577, 1503610478839
4576, 1503610478806
4575, 1503610478773
4574, 1503610478740
4573, 1503610478707
4572, 1503610478674
4571, 1503610478641
4570, 1503610478608
4569, 1503610478575
4568, 1503610478542
4567, 1503610478509
4566, 1503610478476
4565, 1503610478443
4564, 1503610478410
4563, 1503610478377
4562, 1503610478344
4561, 1503610478311
4560, 1503610478278
4559, 1503610478245
4558, 1503610478212
4557, 1503610478179
4556, 1503610478146
4555, 1503610478113
4554, 1503610478080
4553, 1503610478047
4552, 1503610478014
4551, 1503610477981
4550, 1503610477948
4549, 1503610477915
4548, 1503610477882
4547, 1503610477849
4546, 1503610477816
4545, 1503610477783
4544, 1503610477750
4543, 1503610477717
4542, 1503610477684
4541, 1503610477651
4540, 1503610477618
4539, 1503610477585
4538, 1503610477552
4537, 1503610477519
4536, 1503610477486
4535, 1503610477453
4534, 1503610477420
4533, 1503610477387
4532, 1503610477354
4531, 1503610477321
4530, 1503610477288
4529, 1503610477255
4528, 1503610477222
4527, 1503610477189
4526, 1503610477156
4525, 1503610477123
4524, 1503610477090
4523, 1503610477057
4522, 1503610477024
4521, 1503610476991
4520, 1503610476958
4519, 1503610476925
4518, 1503610476892
4517, 1503610476859
4516, 1503610476826
4515, 1503610476793
4514, 1503610476760
4513, 1503610476727
4512, 1503610476694
4511, 1503610476661
4510, 1503610476628
4509, 1503610476595
4508, 1503610476562
4507, 1503610476529
4506, 1503610476496
4505, 1503610476463
4504, 1503610476430
4503, 1503610476397
4502, 1503610476364
4501, 1503610476331
4500, 1503610476298
4499, 1503610476265
4498, 1503610476232
4497, 1503610476199
4496, 1503610476166
4495, 1503610476133
4494, 1503610476100
4493, 1503610476067
4492, 1503610476034
4491, 1503610476001
4490, 1503610475968
4489, 1503610475935
4488, 1503610475902
4487, 1503610475869
4486, 1503610475836
4485, 1503610475803
4484, 1503610475770
4483, 1503610475737
4482, 1503610475704
4481, 1503610475671
4480, 1503610475638
4479, 1503610475605
4478, 1503610475572
4477, 1503610475539
4476, 1503610475506
4475, 1503610475473
4474, 1503610475440
4473, 1503610475407
4472, 1503610475374
4471, 1503610475341
4470, 1503610475308
4469, 1503610475275
4468, 1503610475242
4467, 1503610475209
4466, 1503610475176
4465, 1503610475143
4464, 1503610475110
4463, 1503610475077
4462, 1503610475044
4461, 1503610475011
4460, 1503610474978
4459, 1503610474945
4458, 1503610474912
4457, 1503610474879
4456, 1503610474846
4455, 1503610474813
4454, 1503610474780
4453, 1503610474747
4452, 1503610474714
4451, 1503610474681
4450, 1503610474648
4449, 1503610474615
4448, 1503610474582
4447, 1503610474549
4446, 1503610474516
4445, 1503610474483
4444, 1503610474450
4443, 1503610474417
4442, 1503610474384
4441, 1503610474351
4440, 1503610474318
4439, 1503610474285
4438, 1503610474252
4437, 1503610474219
4436, 1503610474186
4435, 1503610474153
4434, 1503610474120
4433, 1503610474087
4432, 1503610474054
4431, 1503610474021
4430, 1503610473988
4429, 1503610473955
4428, 1503610473922
4427, 1503610473889
4426, 1503610473856
4425, 1503610473823
4424, 1503610473790
4423, 1503610473757
4422, 1503610473724
4421, 1503610473691
4420, 1503610473658
4419, 1503610473625
4418, 1503610473592
4417, 1503610473559
4416, 1503610473526
4415, 1503610473493
4414, 1503610473460
4413, 1503610473427
4412, 1503610473394
4411, 1503610473361
4410, 1503610473328
4409, 1503610473295
4408, 1503610473262
4407, 1503610473229
4406, 1503610473196
4405, 1503610473163
4404, 1503610473130
4403, 1503610473097
4402, 1503610473064
4401, 1503610473031
4400, 1503610472998
4399, 1503610472965
4398, 1503610472932
4397, 1503610472899
4396, 1503610472866
4395, 1503610472833
4394, 1503610472800
4393, 1503610472767
4392, 1503610472734
4391, 1503610472701
4390, 1503610472668
4389, 1503610472635
4388, 1503610472602
4387, 1503610472569
4386, 1503610472536
4385, 1503610472503
4384, 1503610472470
4383, 1503610472437
4382, 1503610472404
4381, 1503610472371
4380, 1503610472338
4379, 1503610472305
4378, 1503610472272
4377, 1503610472239
4376, 1503610472206
4375, 1503610472173
4374, 1503610472140
4373, 1503610472107
4372, 1503610472074
4371, 1503610472041
4370, 1503610472008
4369, 1503610471975
4368, 1503610471942
4367, 1503610471909
4366, 1503610471876
4365, 1503610471843
4364, 1503610471810
4363, 1503610471777
4362, 1503610471744
4361, 1503610471711
4360, 1503610471678
4359, 1503610471645
4358, 1503610471612
4357, 1503610471579
4356, 1503610471546
4355, 1503610471513
4354, 1503610471480
4353, 1503610471447
4352, 1503610471414
4351, 1503610471381
4350, 1503610471348
4349, 1503610471315
4348, 1503610471282
4347, 1503610471249
4346, 1503610471216
4345, 1503610471183
4344, 1503610471150
4343, 1503610471117
4342, 1503610471084
4341, 1503610471051
4340, 1503610471018
4339, 1503610470985
4338, 1503610470952
4337, 1503610470919
4336, 1503610470886
4335, 1503610470853
4334, 1503610470820
4333, 1503610470787
4332, 1503610470754
4331, 1503610470721
4330, 1503610470688
4329, 1503610470655
4328, 1503610470622
4327, 1503610470589
4326, 1503610470556
4325, 1503610470523
4324, 1503610470490
4323, 1503610470457
4322, 1503610470424
4321, 1503610470391
4320, 1503610470358
4319, 1503610470325
4318, 1503610470292
4317, 1503610470259
4316, 1503610470226
4315, 1503610470193
4314, 1503610470160
4313, 1503610470127
4312, 1503610470094
4311, 1503610470061
4310, 1503610470028
4309, 1503610469995
4308, 1503610469962
4307, 1503610469929
4306, 1503610469896
4305, 1503610469863
4304, 1503610469830
4303, 1503610469797
4302, 1503610469764
4301, 1503610469731
4300, 1503610469698
4299, 1503610469665
4298, 1503610469632
4297, 1503610469599
4296, 1503610469566
4295, 1503610469533
4294, 1503610469500
4293, 1503610469467
4292, 1503610469434
4291, 1503610469401
4290, 1503610469368
4289, 1503610469335
4288, 1503610469302
4287, 1503610469269
4286, 1503610469236
4285, 1503610469203
4284, 1503610469170
4283, 1503610469137
4282, 1503610469104
4281, 1503610469071
4280, 1503610469038
4279, 1503610469005
4278, 1503610468972
4277, 1503610468939
4276, 1503610468906
4275, 1503610468873
4274, 1503610468840
4273, 1503610468807
4272, 1503610468774
4271, 1503610468741
4270, 1503610468708
4269, 1503610468675
4268, 1503610468642
4267, 1503610468609
4266, 1503610468576
4265, 1503610468543
4264, 1503610468510
4263, 1503610468477
4262, 1503610468444
4261, 1503610468411
4260, 1503610468378
4259, 1503610468345
4258, 1503610468312
4257, 1503610468279
4256, 1503610468246
4255, 1503610468213
4254, 1503610468180
4253, 1503610468147
4252, 1503610468114
4251, 1503610468081
4250, 1503610468048
4249, 1503610468015
4248, 1503610467982
4247, 1503610467949
4246, 1503610467916
4245, 1503610467883
4244, 1503610467850
4243, 1503610467817
4242, 1503610467784
4241, 1503610467751
4240, 1503610467718
4239, 1503610467685
4238, 1503610467652
4237, 1503610467619
4236, 1503610467586
4235, 1503610467553
4234, 1503610467520
4233, 1503610467487
4232, 1503610467454
4231, 1503610467421
4230, 1503610467388
4229, 1503610467355
4228, 1503610467322
4227, 1503610467289
4226, 1503610467256
4225, 1503610467223
4224, 1503610467190
4223, 1503610467157
4222, 1503610467124
4221, 1503610467091
4220, 1503610467058
4219, 1503610467025
4218, 1503610466992
4217, 1503610466959
4216, 1503610466926
4215, 1503610466893
4214, 1503610466860
4213, 1503610466827
4212, 1503610466794
4211, 1503610466761
4210, 1503610466728
4209, 1503610466695
4208, 1503610466662
4207, 1503610466629
4206, 1503610466596
4205, 1503610466563
4204, 1503610466530
4203, 1503610466497
4202, 1503610466464
4201, 1503610466431
4200, 1503610466398
4199, 1503610466365
4198, 1503610466332
4197, 1503610466299
4196, 1503610466266
4195, 1503610466233
4194, 1503610466200
4193, 1503610466167
4192, 1503610466134
4191, 1503610466101
4190, 1503610466068
4189, 1503610466035
4188, 1503610466002
4187, 1503610465969
4186, 1503610465936
4185, 1503610465903
4184, 1503610465870
4183, 1503610465837
4182, 1503610465804
4181, 1503610465771
4180, 1503610465738
4179, 1503610465705
4178, 1503610465672
4177, 1503610465639
4176, 1503610465606
4175, 1503610465573
4174, 1503610465540
4173, 1503610465507
4172, 1503610465474
4171, 1503610465441
4170, 1503610465408
4169, 1503610465375
4168, 1503610465342
4167, 1503610465309
4166, 1503610465276
4165, 1503610465243
4164, 1503610465210
4163, 1503610465177
4162, 1503610465144
4161, 1503610465111
4160, 1503610465078
4159, 1503610465045
4158, 1503610465012
4157, 1503610464979
4156, 1503610464946
4155, 1503610464913
4154, 1503610464880
4153, 1503610464847
4152, 1503610464814
4151, 1503610464781
4150, 1503610464748
4149, 1503610464715
4148, 1503610464682
4147, 1503610464649
4146, 1503610464616
4145, 1503610464583
4144, 1503610464550
4143, 1503610464517
4142, 1503610464484
4141, 1503610464451
4140, 1503610464418
4139, 1503610464385
4138, 1503610464352
4137, 1503610464319
4136, 1503610464286
4135, 1503610464253
4134, 1503610464220
4133, 1503610464187
4132, 1503610464154
4131, 1503610464121
4130, 1503610464088
4129, 1503610464055
4128, 1503610464022
4127, 1503610463989
4126, 1503610463956
4125, 1503610463923
4124, 1503610463890
4123, 1503610463857
4122, 1503610463824
4121, 1503610463791
4120, 1503610463758
4119, 1503610463725
4118, 1503610463692
4117, 1503610463659
4116, 1503610463626
4115, 1503610463593
4114, 1503610463560
4113, 1503610463527
4112, 1503610463494
4111, 1503610463461
4110, 1503610463428
4109, 1503610463395
4108, 1503610463362
4107, 1503610463329
4106, 1503610463296
4105, 1503610463263
4104, 1503610463230
4103, 1503610463197
4102, 1503610463164
4101, 1503610463131
4100, 1503610463098
4099, 1503610463065
4098, 1503610463032
4097, 1503610462999
4096, 1503610462966
4095, 1503610462933
4094, 1503610462900
4093, 1503610462867
4092, 1503610462834
4091, 1503610462801
4090, 1503610462768
4089, 1503610462735
4088, 1503610462702
4087, 1503610462669
4086, 1503610462636
4085, 1503610462603
4084, 1503610462570
4083, 1503610462537
4082, 1503610462504
4081, 1503610462471
4080, 1503610462438
4079, 1503610462405
4078, 1503610462372
4077, 1503610462339
4076, 1503610462306
4075, 1503610462273
4074, 1503610462240
4073, 1503610462207
4072, 1503610462174
4071, 1503610462141
4070, 1503610462108
4069, 1503610462075
4068, 1503610462042
4067, 1503610462009
4066, 1503610461976
4065, 1503610461943
4064, 1503610461910
4063, 1503610461877
4062, 1503610461844
4061, 1503610461811
4060, 1503610461778
4059, 1503610461745
4058, 1503610461712
4057, 1503610461679
4056, 1503610461646
4055, 1503610461613
4054, 1503610461580
4053, 1503610461547
4052, 1503610461514
4051, 1503610461481
4050, 1503610461448
4049, 1503610461415
4048, 1503610461382
4047, 1503610461349
4046, 1503610461316
4045, 1503610461283
4044, 1503610461250
4043, 1503610461217
4042, 1503610461184
4041, 1503610461151
4040, 1503610461118
4039, 1503610461085
4038, 1503610461052
4037, 1503610461019
4036, 1503610460986
4035, 1503610460953
4034, 1503610460920
4033, 1503610460887
4032, 1503610460854
4031, 1503610460821
4030, 1503610460788
4029, 1503610460755
4028, 1503610460722
4027, 1503610460689
4026, 1503610460656
4025, 1503610460623
4024, 1503610460590
4023, 1503610460557
4022, 1503610460524
4021, 1503610460491
4020, 1503610460458
4019, 1503610460425
4018, 1503610460392
4017, 1503610460359
4016, 1503610460326
4015, 1503610460293
4014, 1503610460260
4013, 1503610460227
4012, 1503610460194
4011, 1503610460161
4010, 1503610460128
4009, 1503610460095
4008, 1503610460062
4007, 1503610460029
4006, 1503610459996
4005, 1503610459963
4004, 1503610459930
4003, 1503610459897
4002, 1503610459864
4001, 1503610459831
4000, 1503610459798
3999, 1503610459765
3998, 1503610459732
3997, 1503610459699
3996, 1503610459666
3995, 1503610459633
3994, 1503610459600
3993, 1503610459567
3992, 1503610459534
3991, 1503610459501
3990, 1503610459468
3989, 1503610459435
3988, 1503610459402
3987, 1503610459369
3986, 1503610459336
3985, 1503610459303
3984, 1503610459270
3983, 1503610459237
3982, 1503610459204
3981, 1503610459171
3980, 1503610459138
3979, 1503610459105
3978, 1503610459072
3977, 1503610459039
3976, 1503610459006
3975, 1503610458973
3974, 1503610458940
3973, 1503610458907
3972, 1503610458874
3971, 1503610458841
3970, 1503610458808
3969, 1503610458775
3968, 1503610458742
3967, 1503610458709
3966, 1503610458676
3965, 1503610458643
3964, 1503610458610
3963, 1503610458577
3962, 1503610458544
3961, 1503610458511
3960, 1503610458478
3959, 1503610458445
3958, 1503610458412
3957, 1503610458379
3956, 1503610458346
3955, 1503610458313
3954, 1503610458280
3953, 1503610458247
3952, 1503610458214
3951, 1503610458181
3950, 1503610458148
3949, 1503610458115
3948, 1503610458082
3947, 1503610458049
3946, 1503610458016
3945, 1503610457983
3944, 1503610457950
3943, 1503610457917
3942, 1503610457884
3941, 1503610457851
3940, 1503610457818
3939, 1503610457785
3938, 1503610457752
3937, 1503610457719
3936, 1503610457686
3935, 1503610457653
3934, 1503610457620
3933, 1503610457587
3932, 1503610457554
3931, 1503610457521
3930, 1503610457488
3929, 1503610457455
3928, 1503610457422
3927, 1503610457389
3926, 1503610457356
3925, 1503610457323
3924, 1503610457290
3923, 1503610457257
3922, 1503610457224
3921, 1503610457191
3920, 1503610457158
3919, 1503610457125
3918, 1503610457092
3917, 1503610457059
3916, 1503610457026
3915, 1503610456993
3914, 1503610456960
3913, 1503610456927
3912, 1503610456894
3911, 1503610456861
3910, 1503610456828
3909, 1503610456795
3908, 1503610456762
3907, 1503610456729
3906, 1503610456696
3905, 1503610456663
3904, 1503610456630
3903, 1503610456597
3902, 1503610456564
3901, 1503610456531
3900, 1503610456498
3899, 1503610456465
3898, 1503610456432
3897, 1503610456399
3896, 1503610456366
3895, 1503610456333
3894, 1503610456300
3893, 1503610456267
3892, 1503610456234
3891, 1503610456201
3890, 1503610456168
3889, 1503610456135
3888, 1503610456102
3887, 1503610456069
3886, 1503610456036
3885, 1503610456003
3884, 1503610455970
3883, 1503610455937
3882, 1503610455904
3881, 1503610455871
3880, 1503610455838
3879, 1503610455805
3878, 1503610455772
3877, 1503610455739
3876, 1503610455706
3875, 1503610455673
3874, 1503610455640
3873, 1503610455607
3872, 1503610455574
3871, 1503610455541
3870, 1503610455508
3869, 1503610455475
3868, 1503610455442
3867, 1503610455409
3866, 1503610455376
3865, 1503610455343
3864, 1503610455310
3863, 1503610455277
3862, 1503610455244
3861, 1503610455211
3860, 1503610455178
3859, 1503610455145
3858, 1503610455112
3857, 1503610455079
3856, 1503610455046
3855, 1503610455013
3854, 1503610454980
3853, 1503610454947
3852, 1503610454914
3851, 1503610454881
3850, 1503610454848
3849, 1503610454815
3848, 1503610454782
3847, 1503610454749
3846, 1503610454716
3845, 1503610454683
3844, 1503610454650
3843, 1503610454617
3842, 1503610454584
3841, 1503610454551
3840, 1503610454518
3839, 1503610454485
3838, 1503610454452
3837, 1503610454419
3836, 1503610454386
3835, 1503610454353
3834, 1503610454320
3833, 1503610454287
3832, 1503610454254
3831, 1503610454221
3830, 1503610454188
3829, 1503610454155
3828, 1503610454122
3827, 1503610454089
3826, 1503610454056
3825, 1503610454023
3824, 1503610453990
3823, 1503610453957
3822, 1503610453924
3821, 1503610453891
3820, 1503610453858
3819, 1503610453825
3818, 1503610453792
3817, 1503610453759
3816, 1503610453726
3815, 1503610453693
3814, 1503610453660
3813, 1503610453627
3812, 1503610453594
3811, 1503610453561
3810, 1503610453528
3809, 1503610453495
3808, 1503610453462
3807, 1503610453429
3806, 1503610453396
3805, 1503610453363
3804, 1503610453330
3803, 1503610453297
3802, 1503610453264
3801, 1503610453231
3800, 1503610453198
3799, 1503610453165
3798, 1503610453132
3797, 1503610453099
3796, 1503610453066
3795, 1503610453033
3794, 1503610453000
3793, 1503610452967
3792, 1503610452934
3791, 1503610452901
3790, 1503610452868
3789, 1503610452835
3788, 1503610452802
3787, 1503610452769
3786, 1503610452736
3785, 1503610452703
3784, 1503610452670
3783, 1503610452637
3782, 1503610452604
3781, 1503610452571
3780, 1503610452538
3779, 1503610452505
3778, 1503610452472
3777, 1503610452439
3776, 1503610452406
3775, 1503610452373
3774, 1503610452340
3773, 1503610452307
3772, 1503610452274
3771, 1503610452241
3770, 1503610452208
3769, 1503610452175
3768, 1503610452142
3767, 1503610452109
3766, 1503610452076
3765, 1503610452043
3764, 1503610452010
3763, 1503610451977
3762, 1503610451944
3761, 1503610451911
3760, 1503610451878
3759, 1503610451845
3758, 1503610451812
3757, 1503610451779
3756, 1503610451746
3755, 1503610451713
3754, 1503610451680
3753, 1503610451647
3752, 1503610451614
3751, 1503610451581
3750, 1503610451548
3749, 1503610451515
3748, 1503610451482
3747, 1503610451449
3746, 1503610451416
3745, 1503610451383
3744, 1503610451350
3743, 1503610451317
3742, 1503610451284
3741, 1503610451251
3740, 1503610451218
3739, 1503610451185
3738, 1503610451152
3737, 1503610451119
3736, 1503610451086
3735, 1503610451053
3734, 1503610451020
3733, 1503610450987
3732, 1503610450954
3731, 1503610450921
3730, 1503610450888
3729, 1503610450855
3728, 1503610450822
3727, 1503610450789
3726, 1503610450756
3725, 1503610450723
3724, 1503610450690
3723, 1503610450657
3722, 1503610450624
3721, 1503610450591
3720, 1503610450558
3719, 1503610450525
3718, 1503610450492
3717, 1503610450459
3716, 1503610450426
3715, 1503610450393
3714, 1503610450360
3713, 1503610450327
3712, 1503610450294
3711, 1503610450261
3710, 1503610450228
3709, 1503610450195
3708, 1503610450162
3707, 1503610450129
3706, 1503610450096
3705, 1503610450063
3704, 1503610450030
3703, 1503610449997
3702, 1503610449964
3701, 1503610449931
3700, 1503610449898
3699, 1503610449865
3698, 1503610449832
3697, 1503610449799
3696, 1503610449766
3695, 1503610449733
3694, 1503610449700
3693, 1503610449667
3692, 1503610449634
3691, 1503610449601
3690, 1503610449568
3689, 1503610449535
3688, 1503610449502
3687, 1503610449469
3686, 1503610449436
3685, 1503610449403
3684, 1503610449370
3683, 1503610449337
3682, 1503610449304
3681, 1503610449271
3680, 1503610449238
3679, 1503610449205
3678, 1503610449172
3677, 1503610449139
3676, 1503610449106
3675, 1503610449073
3674, 1503610449040
3673, 1503610449007
3672, 1503610448974
3671, 1503610448941
3670, 1503610448908
3669, 1503610448875
3668, 1503610448842
3667, 1503610448809
3666, 1503610448776
3665, 1503610448743
3664, 1503610448710
3663, 1503610448677
3662, 1503610448644
3661, 1503610448611
3660, 1503610448578
3659, 1503610448545
3658, 1503610448512
3657, 1503610448479
3656, 1503610448446
3655, 1503610448413
3654, 1503610448380
3653, 1503610448347
3652, 1503610448314
3651, 1503610448281
3650, 1503610448248
3649, 1503610448215
3648, 1503610448182
3647, 1503610448149
3646, 1503610448116
3645, 1503610448083
3644, 1503610448050
3643, 1503610448017
3642, 1503610447984
3641, 1503610447951
3640, 1503610447918
3639, 1503610447885
3638, 1503610447852
3637, 1503610447819
3636, 1503610447786
3635, 1503610447753
3634, 1503610447720
3633, 1503610447687
3632, 1503610447654
3631, 1503610447621
3630, 1503610447588
3629, 1503610447555
3628, 1503610447522
3627, 1503610447489
3626, 1503610447456
3625, 1503610447423
3624, 1503610447390
3623, 1503610447357
3622, 1503610447324
3621, 1503610447291
3620, 1503610447258
3619, 1503610447225
3618, 1503610447192
3617, 1503610447159
3616, 1503610447126
3615, 1503610447093
3614, 1503610447060
3613, 1503610447027
3612, 1503610446994
3611, 1503610446961
3610, 1503610446928
3609, 1503610446895
3608, 1503610446862
3607, 1503610446829
3606, 1503610446796
3605, 1503610446763
3604, 1503610446730
3603, 1503610446697
3602, 1503610446664
3601, 1503610446631
3600, 1503610446598
3599, 1503610446565
3598, 1503610446532
3597, 1503610446499
3596, 1503610446466
3595, 1503610446433
3594, 1503610446400
3593, 1503610446367
3592, 1503610446334
3591, 1503610446301
3590, 1503610446268
3589, 1503610446235
3588, 1503610446202
3587, 1503610446169
3586, 1503610446136
3585, 1503610446103
3584, 1503610446070
3583, 1503610446037
3582, 1503610446004
3581, 1503610445971
3580, 1503610445938
3579, 1503610445905
3578, 1503610445872
3577, 1503610445839
3576, 1503610445806
3575, 1503610445773
3574, 1503610445740
3573, 1503610445707
3572, 1503610445674
3571, 1503610445641
3570, 1503610445608
3569, 1503610445575
3568, 1503610445542
3567, 1503610445509
3566, 1503610445476
3565, 1503610445443
3564, 1503610445410
3563, 1503610445377
3562, 1503610445344
3561, 1503610445311
3560, 1503610445278
3559, 1503610445245
3558, 1503610445212
3557, 1503610445179
3556, 1503610445146
3555, 1503610445113
3554, 1503610445080
3553, 1503610445047
3552, 1503610445014
3551, 1503610444981
3550, 1503610444948
3549, 1503610444915
3548, 1503610444882
3547, 1503610444849
3546, 1503610444816
3545, 1503610444783
3544, 1503610444750
3543, 1503610444717
3542, 1503610444684
3541, 1503610444651
3540, 1503610444618
3539, 1503610444585
3538, 1503610444552
3537, 1503610444519
3536, 1503610444486
3535, 1503610444453
3534, 1503610444420
3533, 1503610444387
3532, 1503610444354
3531, 1503610444321
3530, 1503610444288
3529, 1503610444255
3528, 1503610444222
3527, 1503610444189
3526, 1503610444156
3525, 1503610444123
3524, 1503610444090
3523, 1503610444057
3522, 1503610444024
3521, 1503610443991
3520, 1503610443958
3519, 1503610443925
3518, 1503610443892
3517, 1503610443859
3516, 1503610443826
3515, 1503610443793
3514, 1503610443760
3513, 1503610443727
3512, 1503610443694
3511, 1503610443661
3510, 1503610443628
3509, 1503610443595
3508, 1503610443562
3507, 1503610443529
3506, 1503610443496
3505, 1503610443463
3504, 1503610443430
3503, 1503610443397
3502, 1503610443364
3501, 1503610443331
3500, 1503610443298
3499, 1503610443265
3498, 1503610443232
3497, 1503610443199
3496, 1503610443166
3495, 1503610443133
3494, 1503610443100
3493, 1503610443067
3492, 1503610443034
3491, 1503610443001
3490, 1503610442968
3489, 1503610442935
3488, 1503610442902
3487, 1503610442869
3486, 1503610442836
3485, 1503610442803
3484, 1503610442770
3483, 1503610442737
3482, 1503610442704
3481, 1503610442671
3480, 1503610442638
3479, 1503610442605
3478, 1503610442572
3477, 1503610442539
3476, 1503610442506
3475, 1503610442473
3474, 1503610442440
3473, 1503610442407
3472, 1503610442374
3471, 1503610442341
3470, 1503610442308
3469, 1503610442275
3468, 1503610442242
3467, 1503610442209
3466, 1503610442176
3465, 1503610442143
3464, 1503610442110
3463, 1503610442077
3462, 1503610442044
3461, 1503610442011
3460, 1503610441978
3459, 1503610441945
3458, 1503610441912
3457, 1503610441879
3456, 1503610441846
3455, 1503610441813
3454, 1503610441780
3453, 1503610441747
3452, 1503610441714
3451, 1503610441681
3450, 1503610441648
3449, 1503610441615
3448, 1503610441582
3447, 1503610441549
3446, 1503610441516
3445, 1503610441483
3444, 1503610441450
3443, 1503610441417
3442, 1503610441384
3441, 1503610441351
3440, 1503610441318
3439, 1503610441285
3438, 1503610441252
3437, 1503610441219
3436, 1503610441186
3435, 1503610441153
3434, 1503610441120
3433, 1503610441087
3432, 1503610441054
3431, 1503610441021
3430, 1503610440988
3429, 1503610440955
3428, 1503610440922
3427, 1503610440889
3426, 1503610440856
3425, 1503610440823
3424, 1503610440790
3423, 1503610440757
3422, 1503610440724
3421, 1503610440691
3420, 1503610440658
3419, 1503610440625
3418, 1503610440592
3417, 1503610440559
3416, 1503610440526
3415, 1503610440493
3414, 1503610440460
3413, 1503610440427
3412, 1503610440394
3411, 1503610440361
3410, 1503610440328
3409, 1503610440295
3408, 1503610440262
3407, 1503610440229
3406, 1503610440196
3405, 1503610440163
3404, 1503610440130
3403, 1503610440097
3402, 1503610440064
3401, 1503610440031
3400, 1503610439998
3399, 1503610439965
3398, 1503610439932
3397, 1503610439899
3396, 1503610439866
3395, 1503610439833
3394, 1503610439800
3393, 1503610439767
3392, 1503610439734
3391, 1503610439701
3390, 1503610439668
3389, 1503610439635
3388, 1503610439602
3387, 1503610439569
3386, 1503610439536
3385, 1503610439503
3384, 1503610439470
3383, 1503610439437
3382, 1503610439404
3381, 1503610439371
3380, 1503610439338
3379, 1503610439305
3378, 1503610439272
3377, 1503610439239
3376, 1503610439206
3375, 1503610439173
3374, 1503610439140
3373, 1503610439107
3372, 1503610439074
3371, 1503610439041
3370, 1503610439008
3369, 1503610438975
3368, 1503610438942
3367, 1503610438909
3366, 1503610438876
3365, 1503610438843
3364, 1503610438810
3363, 1503610438777
3362, 1503610438744
3361, 1503610438711
3360, 1503610438678
3359, 1503610438645
3358, 1503610438612
3357, 1503610438579
3356, 1503610438546
3355, 1503610438513
3354, 1503610438480
3353, 1503610438447
3352, 1503610438414
3351, 1503610438381
3350, 1503610438348
3349, 1503610438315
3348, 1503610438282
3347, 1503610438249
3346, 1503610438216
3345, 1503610438183
3344, 1503610438150
3343, 1503610438117
3342, 1503610438084
3341, 1503610438051
3340, 1503610438018
3339, 1503610437985
3338, 1503610437952
3337, 1503610437919
3336, 1503610437886
3335, 1503610437853
3334, 1503610437820
3333, 1503610437787
3332, 1503610437754
3331, 1503610437721
3330, 1503610437688
3329, 1503610437655
3328, 1503610437622
3327, 1503610437589
3326, 1503610437556
3325, 1503610437523
3324, 1503610437490
3323, 1503610437457
3322, 1503610437424
3321, 1503610437391
3320, 1503610437358
3319, 1503610437325
3318, 1503610437292
3317, 1503610437259
3316, 1503610437226
3315, 1503610437193
3314, 1503610437160
3313, 1503610437127
3312, 1503610437094
3311, 1503610437061
3310, 1503610437028
3309, 1503610436995
3308, 1503610436962
3307, 1503610436929
3306, 1503610436896
3305, 1503610436863
3304, 1503610436830
3303, 1503610436797
3302, 1503610436764
3301, 1503610436731
3300, 1503610436698
3299, 1503610436665
3298, 1503610436632
3297, 1503610436599
3296, 1503610436566
3295, 1503610436533
3294, 1503610436500
3293, 1503610436467
3292, 1503610436434
3291, 1503610436401
3290, 1503610436368
3289, 1503610436335
3288, 1503610436302
3287, 1503610436269
3286, 1503610436236
3285, 1503610436203
3284, 1503610436170
3283, 1503610436137
3282, 1503610436104
3281, 1503610436071
3280, 1503610436038
3279, 1503610436005
3278, 1503610435972
3277, 1503610435939
3276, 1503610435906
3275, 1503610435873
3274, 1503610435840
3273, 1503610435807
3272, 1503610435774
3271, 1503610435741
3270, 1503610435708
3269, 1503610435675
3268, 1503610435642
3267, 1503610435609
3266, 1503610435576
3265, 1503610435543
3264, 1503610435510
3263, 1503610435477
3262, 1503610435444
3261, 1503610435411
3260, 1503610435378
3259, 1503610435345
3258, 1503610435312
3257, 1503610435279
3256, 1503610435246
3255, 1503610435213
3254, 1503610435180
3253, 1503610435147
3252, 1503610435114
3251, 1503610435081
3250, 1503610435048
3249, 1503610435015
3248, 1503610434982
3247, 1503610434949
3246, 1503610434916
3245, 1503610434883
3244, 1503610434850
3243, 1503610434817
3242, 1503610434784
3241, 1503610434751
3240, 1503610434718
3239, 1503610434685
3238, 1503610434652
3237, 1503610434619
3236, 1503610434586
3235, 1503610434553
3234, 1503610434520
3233, 1503610434487
3232, 1503610434454
3231, 1503610434421
3230, 1503610434388
3229, 1503610434355
3228, 1503610434322
3227, 1503610434289
3226, 1503610434256
3225, 1503610434223
3224, 1503610434190
3223, 1503610434157
3222, 1503610434124
3221, 1503610434091
3220, 1503610434058
3219, 1503610434025
3218, 1503610433992
3217, 1503610433959
3216, 1503610433926
3215, 1503610433893
3214, 1503610433860
3213, 1503610433827
3212, 1503610433794
3211, 1503610433761
3210, 1503610433728
3209, 1503610433695
3208, 1503610433662
3207, 1503610433629
3206, 1503610433596
3205, 1503610433563
3204, 1503610433530
3203, 1503610433497
3202, 1503610433464
3201, 1503610433431
3200, 1503610433398
3199, 1503610433365
3198, 1503610433332
3197, 1503610433299
3196, 1503610433266
3195, 1503610433233
3194, 1503610433200
3193, 1503610433167
3192, 1503610433134
3191, 1503610433101
3190, 1503610433068
3189, 1503610433035
3188, 1503610433002
3187, 1503610432969
3186, 1503610432936
3185, 1503610432903
3184, 1503610432870
3183, 1503610432837
3182, 1503610432804
3181, 1503610432771
3180, 1503610432738
3179, 1503610432705
3178, 1503610432672
3177, 1503610432639
3176, 1503610432606
3175, 1503610432573
3174, 1503610432540
3173, 1503610432507
3172, 1503610432474
3171, 1503610432441
3170, 1503610432408
3169, 1503610432375
3168, 1503610432342
3167, 1503610432309
3166, 1503610432276
3165, 1503610432243
3164, 1503610432210
3163, 1503610432177
3162, 1503610432144
3161, 1503610432111
3160, 1503610432078
3159, 1503610432045
3158, 1503610432012
3157, 1503610431979
3156, 1503610431946
3155, 1503610431913
3154, 1503610431880
3153, 1503610431847
3152, 1503610431814
3151, 1503610431781
3150, 1503610431748
3149, 1503610431715
3148, 1503610431682
3147, 1503610431649
3146, 1503610431616
3145, 1503610431583
3144, 1503610431550
3143, 1503610431517
3142, 1503610431484
3141, 1503610431451
3140, 1503610431418
3139, 1503610431385
3138, 1503610431352
3137, 1503610431319
3136, 1503610431286
3135, 1503610431253
3134, 1503610431220
3133, 1503610431187
3132, 1503610431154
3131, 1503610431121
3130, 1503610431088
3129, 1503610431055
3128, 1503610431022
3127, 1503610430989
3126, 1503610430956
3125, 1503610430923
3124, 1503610430890
3123, 1503610430857
3122, 1503610430824
3121, 1503610430791
3120, 1503610430758
3119, 1503610430725
3118, 1503610430692
3117, 1503610430659
3116, 1503610430626
3115, 1503610430593
3114, 1503610430560
3113, 1503610430527
3112, 1503610430494
3111, 1503610430461
3110, 1503610430428
3109, 1503610430395
3108, 1503610430362
3107, 1503610430329
3106, 1503610430296
3105, 1503610430263
3104, 1503610430230
3103, 1503610430197
3102, 1503610430164
3101, 1503610430131
3100, 1503610430098
3099, 1503610430065
3098, 1503610430032
3097, 1503610429999
3096, 1503610429966
3095, 1503610429933
3094, 1503610429900
3093, 1503610429867
3092, 1503610429834
3091, 1503610429801
3090, 1503610429768
3089, 1503610429735
3088, 1503610429702
3087, 1503610429669
3086, 1503610429636
3085, 1503610429603
3084, 1503610429570
3083, 1503610429537
3082, 1503610429504
3081, 1503610429471
3080, 1503610429438
3079, 1503610429405
3078, 1503610429372
3077, 1503610429339
3076, 1503610429306
3075, 1503610429273
3074, 1503610429240
3073, 1503610429207
3072, 1503610429174
3071, 1503610429141
3070, 1503610429108
3069, 1503610429075
3068, 1503610429042
3067, 1503610429009
3066, 1503610428976
3065, 1503610428943
3064, 1503610428910
3063, 1503610428877
3062, 1503610428844
3061, 1503610428811
3060, 1503610428778
3059, 1503610428745
3058, 1503610428712
3057, 1503610428679
3056, 1503610428646
3055, 1503610428613
3054, 1503610428580
3053, 1503610428547
3052, 1503610428514
3051, 1503610428481
3050, 1503610428448
3049, 1503610428415
3048, 1503610428382
3047, 1503610428349
3046, 1503610428316
3045, 1503610428283
3044, 1503610428250
3043, 1503610428217
3042, 1503610428184
3041, 1503610428151
3040, 1503610428118
3039, 1503610428085
3038, 1503610428052
3037, 1503610428019
3036, 1503610427986
3035, 1503610427953
3034, 1503610427920
3033, 1503610427887
3032, 1503610427854
3031, 1503610427821
3030, 1503610427788
3029, 1503610427755
3028, 1503610427722
3027, 1503610427689
3026, 1503610427656
3025, 1503610427623
3024, 1503610427590
3023, 1503610427557
3022, 1503610427524
3021, 1503610427491
3020, 1503610427458
3019, 1503610427425
3018, 1503610427392
3017, 1503610427359
3016, 1503610427326
3015, 1503610427293
3014, 1503610427260
3013, 1503610427227
3012, 1503610427194
3011, 1503610427161
3010, 1503610427128
3009, 1503610427095
3008, 1503610427062
3007, 1503610427029
3006, 1503610426996
3005, 1503610426963
3004, 1503610426930
3003, 1503610426897
3002, 1503610426864
3001, 1503610426831
3000, 1503610426798
2999, 1503610426765
2998, 1503610426732
2997, 1503610426699
2996, 1503610426666
2995, 1503610426633
2994, 1503610426600
2993, 1503610426567
2992, 1503610426534
2991, 1503610426501
2990, 1503610426468
2989, 1503610426435
2988, 1503610426402
2987, 1503610426369
2986, 1503610426336
2985, 1503610426303
2984, 1503610426270
2983, 1503610426237
2982, 1503610426204
2981, 1503610426171
2980, 1503610426138
2979, 1503610426105
2978, 1503610426072
2977, 1503610426039
2976, 1503610426006
2975, 1503610425973
2974, 1503610425940
2973, 1503610425907
2972, 1503610425874
2971, 1503610425841
2970, 1503610425808
2969, 1503610425775
2968, 1503610425742
2967, 1503610425709
2966, 1503610425676
2965, 1503610425643
2964, 1503610425610
2963, 1503610425577
2962, 1503610425544
2961, 1503610425511
2960, 1503610425478
2959, 1503610425445
2958, 1503610425412
2957, 1503610425379
2956, 1503610425346
2955, 1503610425313
2954, 1503610425280
2953, 1503610425247
2952, 1503610425214
2951, 1503610425181
2950, 1503610425148
2949, 1503610425115
2948, 1503610425082
2947, 1503610425049
2946, 1503610425016
2945, 1503610424983
2944, 1503610424950
2943, 1503610424917
2942, 1503610424884
2941, 1503610424851
2940, 1503610424818
2939, 1503610424785
2938, 1503610424752
2937, 1503610424719
2936, 1503610424686
2935, 1503610424653
2934, 1503610424620
2933, 1503610424587
2932, 1503610424554
2931, 1503610424521
2930, 1503610424488
2929, 1503610424455
2928, 1503610424422
2927, 1503610424389
2926, 1503610424356
2925, 1503610424323
2924, 1503610424290
2923, 1503610424257
2922, 1503610424224
2921, 1503610424191
2920, 1503610424158
2919, 1503610424125
2918, 1503610424092
2917, 1503610424059
2916, 1503610424026
2915, 1503610423993
2914, 1503610423960
2913, 1503610423927
2912, 1503610423894
2911, 1503610423861
2910, 1503610423828
2909, 1503610423795
2908, 1503610423762
2907, 1503610423729
2906, 1503610423696
2905, 1503610423663
2904, 1503610423630
2903, 1503610423597
2902, 1503610423564
2901, 1503610423531
2900, 1503610423498
2899, 1503610423465
2898, 1503610423432
2897, 1503610423399
2896, 1503610423366
2895, 1503610423333
2894, 1503610423300
2893, 1503610423267
2892, 1503610423234
2891, 1503610423201
2890, 1503610423168
2889, 1503610423135
2888, 1503610423102
2887, 1503610423069
2886, 1503610423036
2885, 1503610423003
2884, 1503610422970
2883, 1503610422937
2882, 1503610422904
2881, 1503610422871
2880, 1503610422838
2879, 1503610422805
2878, 1503610422772
2877, 1503610422739
2876, 1503610422706
2875, 1503610422673
2874, 1503610422640
2873, 1503610422607
2872, 1503610422574
2871, 1503610422541
2870, 1503610422508
2869, 1503610422475
2868, 1503610422442
2867, 1503610422409
2866, 1503610422376
2865, 1503610422343
2864, 1503610422310
2863, 1503610422277
2862, 1503610422244
2861, 1503610422211
2860, 1503610422178
2859, 1503610422145
2858, 1503610422112
2857, 1503610422079
2856, 1503610422046
2855, 1503610422013
2854, 1503610421980
2853, 1503610421947
2852, 1503610421914
2851, 1503610421881
2850, 1503610421848
2849, 1503610421815
2848, 1503610421782
2847, 1503610421749
2846, 1503610421716
2845, 1503610421683
2844, 1503610421650
2843, 1503610421617
2842, 1503610421584
2841, 1503610421551
2840, 1503610421518
2839, 1503610421485
2838, 1503610421452
2837, 1503610421419
2836, 1503610421386
2835, 1503610421353
2834, 1503610421320
2833, 1503610421287
2832, 1503610421254
2831, 1503610421221
2830, 1503610421188
2829, 1503610421155
2828, 1503610421122
2827, 1503610421089
2826, 1503610421056
2825, 1503610421023
2824, 1503610420990
2823, 1503610420957
2822, 1503610420924
2821, 1503610420891
2820, 1503610420858
2819, 1503610420825
2818, 1503610420792
2817, 1503610420759
2816, 1503610420726
2815, 1503610420693
2814, 1503610420660
2813, 1503610420627
2812, 1503610420594
2811, 1503610420561
2810, 1503610420528
2809, 1503610420495
2808, 1503610420462
2807, 1503610420429
2806, 1503610420396
2805, 1503610420363
2804, 1503610420330
2803, 1503610420297
2802, 1503610420264
2801, 1503610420231
2800, 1503610420198
2799, 1503610420165
2798, 1503610420132
2797, 1503610420099
2796, 1503610420066
2795, 1503610420033
2794, 1503610420000
2793, 1503610419967
2792, 1503610419934
2791, 1503610419901
2790, 1503610419868
2789, 1503610419835
2788, 1503610419802
2787, 1503610419769
2786, 1503610419736
2785, 1503610419703
2784, 1503610419670
2783, 1503610419637
2782, 1503610419604
2781, 1503610419571
2780, 1503610419538
2779, 1503610419505
2778, 1503610419472
2777, 1503610419439
2776, 1503610419406
2775, 1503610419373
2774, 1503610419340
2773, 1503610419307
2772, 1503610419274
2771, 1503610419241
2770, 1503610419208
2769, 1503610419175
2768, 1503610419142
2767, 1503610419109
2766, 1503610419076
2765, 1503610419043
2764, 1503610419010
2763, 1503610418977
2762, 1503610418944
2761, 1503610418911
2760, 1503610418878
2759, 1503610418845
2758, 1503610418812
2757, 1503610418779
2756, 1503610418746
2755, 1503610418713
2754, 1503610418680
2753, 1503610418647
2752, 1503610418614
2751, 1503610418581
2750, 1503610418548
2749, 1503610418515
2748, 1503610418482
2747, 1503610418449
2746, 1503610418416
2745, 1503610418383
2744, 1503610418350
2743, 1503610418317
2742, 1503610418284
2741, 1503610418251
2740, 1503610418218
2739, 1503610418185
2738, 1503610418152
2737, 1503610418119
2736, 1503610418086
2735, 1503610418053
2734, 1503610418020
2733, 1503610417987
2732, 1503610417954
2731, 1503610417921
2730, 1503610417888
2729, 1503610417855
2728, 1503610417822
2727, 1503610417789
2726, 1503610417756
2725, 1503610417723
2724, 1503610417690
2723, 1503610417657
2722, 1503610417624
2721, 1503610417591
2720, 1503610417558
2719, 1503610417525
2718, 1503610417492
2717, 1503610417459
2716, 1503610417426
2715, 1503610417393
2714, 1503610417360
2713, 1503610417327
2712, 1503610417294
2711, 1503610417261
2710, 1503610417228
2709, 1503610417195
2708, 1503610417162
2707, 1503610417129
2706, 1503610417096
2705, 1503610417063
2704, 1503610417030
2703, 1503610416997
2702, 1503610416964
2701, 1503610416931
2700, 1503610416898
2699, 1503610416865
2698, 1503610416832
2697, 1503610416799
2696, 1503610416766
2695, 1503610416733
2694, 1503610416700
2693, 1503610416667
2692, 1503610416634
2691, 1503610416601
2690, 1503610416568
2689, 1503610416535
2688, 1503610416502
2687, 1503610416469
2686, 1503610416436
2685, 1503610416403
2684, 1503610416370
2683, 1503610416337
2682, 1503610416304
2681, 1503610416271
2680, 1503610416238
2679, 1503610416205
2678, 1503610416172
2677, 1503610416139
2676, 1503610416106
2675, 1503610416073
2674, 1503610416040
2673, 1503610416007
2672, 1503610415974
2671, 1503610415941
2670, 1503610415908
2669, 1503610415875
2668, 1503610415842
2667, 1503610415809
2666, 1503610415776
2665, 1503610415743
2664, 1503610415710
2663, 1503610415677
2662, 1503610415644
2661, 1503610415611
2660, 1503610415578
2659, 1503610415545
2658, 1503610415512
2657, 1503610415479
2656, 1503610415446
2655, 1503610415413
2654, 1503610415380
2653, 1503610415347
2652, 1503610415314
2651, 1503610415281
2650, 1503610415248
2649, 1503610415215
2648, 1503610415182
2647, 1503610415149
2646, 1503610415116
2645, 1503610415083
2644, 1503610415050
2643, 1503610415017
2642, 1503610414984
2641, 1503610414951
2640, 1503610414918
2639, 1503610414885
2638, 1503610414852
2637, 1503610414819
2636, 1503610414786
2635, 1503610414753
2634, 1503610414720
2633, 1503610414687
2632, 1503610414654
2631, 1503610414621
2630, 1503610414588
2629, 1503610414555
2628, 1503610414522
2627, 1503610414489
2626, 1503610414456
2625, 1503610414423
2624, 1503610414390
2623, 1503610414357
2622, 1503610414324
2621, 1503610414291
2620, 1503610414258
2619, 1503610414225
2618, 1503610414192
2617, 1503610414159
2616, 1503610414126
2615, 1503610414093
2614, 1503610414060
2613, 1503610414027
2612, 1503610413994
2611, 1503610413961
2610, 1503610413928
2609, 1503610413895
2608, 1503610413862
2607, 1503610413829
2606, 1503610413796
2605, 1503610413763
2604, 1503610413730
2603, 1503610413697
2602, 1503610413664
2601, 1503610413631
2600, 1503610413598
2599, 1503610413565
2598, 1503610413532
2597, 1503610413499
2596, 1503610413466
2595, 1503610413433
2594, 1503610413400
2593, 1503610413367
2592, 1503610413334
2591, 1503610413301
2590, 1503610413268
2589, 1503610413235
2588, 1503610413202
2587, 1503610413169
2586, 1503610413136
2585, 1503610413103
2584, 1503610413070
2583, 1503610413037
2582, 1503610413004
2581, 1503610412971
2580, 1503610412938
2579, 1503610412905
2578, 1503610412872
2577, 1503610412839
2576, 1503610412806
2575, 1503610412773
2574, 1503610412740
2573, 1503610412707
2572, 1503610412674
2571, 1503610412641
2570, 1503610412608
2569, 1503610412575
2568, 1503610412542
2567, 1503610412509
2566, 1503610412476
2565, 1503610412443
2564, 1503610412410
2563, 1503610412377
2562, 1503610412344
2561, 1503610412311
2560, 1503610412278
2559, 1503610412245
2558, 1503610412212
2557, 1503610412179
2556, 1503610412146
2555, 1503610412113
2554, 1503610412080
2553, 1503610412047
2552, 1503610412014
2551, 1503610411981
2550, 1503610411948
2549, 1503610411915
2548, 1503610411882
2547, 1503610411849
2546, 1503610411816
2545, 1503610411783
2544, 1503610411750
2543, 1503610411717
2542, 1503610411684
2541, 1503610411651
2540, 1503610411618
2539, 1503610411585
2538, 1503610411552
2537, 1503610411519
2536, 1503610411486
2535, 1503610411453
2534, 1503610411420
2533, 1503610411387
2532, 1503610411354
2531, 1503610411321
2530, 1503610411288
2529, 1503610411255
2528, 1503610411222
2527, 1503610411189
2526, 1503610411156
2525, 1503610411123
2524, 1503610411090
2523, 1503610411057
2522, 1503610411024
2521, 1503610410991
2520, 1503610410958
2519, 1503610410925
2518, 1503610410892
2517, 1503610410859
2516, 1503610410826
2515, 1503610410793
2514, 1503610410760
2513, 1503610410727
2512, 1503610410694
2511, 1503610410661
2510, 1503610410628
2509, 1503610410595
2508, 1503610410562
2507, 1503610410529
2506, 1503610410496
2505, 1503610410463
2504, 1503610410430
2503, 1503610410397
2502, 1503610410364
2501, 1503610410331
2500, 1503610410298
2499, 1503610410265
2498, 1503610410232
2497, 1503610410199
2496, 1503610410166
2495, 1503610410133
2494, 1503610410100
2493, 1503610410067
2492, 1503610410034
2491, 1503610410001
2490, 1503610409968
2489, 1503610409935
2488, 1503610409902
2487, 1503610409869
2486, 1503610409836
2485, 1503610409803
2484, 1503610409770
2483, 1503610409737
2482, 1503610409704
2481, 1503610409671
2480, 1503610409638
2479, 1503610409605
2478, 1503610409572
2477, 1503610409539
2476, 1503610409506
2475, 1503610409473
2474, 1503610409440
2473, 1503610409407
2472, 1503610409374
2471, 1503610409341
2470, 1503610409308
2469, 1503610409275
2468, 1503610409242
2467, 1503610409209
2466, 1503610409176
2465, 1503610409143
2464, 1503610409110
2463, 1503610409077
2462, 1503610409044
2461, 1503610409011
2460, 1503610408978
2459, 1503610408945
2458, 1503610408912
2457, 1503610408879
2456, 1503610408846
2455, 1503610408813
2454, 1503610408780
2453, 1503610408747
2452, 1503610408714
2451, 1503610408681
2450, 1503610408648
2449, 1503610408615
2448, 1503610408582
2447, 1503610408549
2446, 1503610408516
2445, 1503610408483
2444, 1503610408450
2443, 1503610408417
2442, 1503610408384
2441, 1503610408351
2440, 1503610408318
2439, 1503610408285
2438, 1503610408252
2437, 1503610408219
2436, 1503610408186
2435, 1503610408153
2434, 1503610408120
2433, 1503610408087
2432, 1503610408054
2431, 1503610408021
2430, 1503610407988
2429, 1503610407955
2428, 1503610407922
2427, 1503610407889
2426, 1503610407856
2425, 1503610407823
2424, 1503610407790
2423, 1503610407757
2422, 1503610407724
2421, 1503610407691
2420, 1503610407658
2419, 1503610407625
2418, 1503610407592
2417, 1503610407559
2416, 1503610407526
2415, 1503610407493
2414, 1503610407460
2413, 1503610407427
2412, 1503610407394
2411, 1503610407361
2410, 1503610407328
2409, 1503610407295
2408, 1503610407262
2407, 1503610407229
2406, 1503610407196
2405, 1503610407163
2404, 1503610407130
2403, 1503610407097
2402, 1503610407064
2401, 1503610407031
2400, 1503610406998
2399, 1503610406965
2398, 1503610406932
2397, 1503610406899
2396, 1503610406866
2395, 1503610406833
2394, 1503610406800
2393, 1503610406767
2392, 1503610406734
2391, 1503610406701
2390, 1503610406668
2389, 1503610406635
2388, 1503610406602
2387, 1503610406569
2386, 1503610406536
2385, 1503610406503
2384, 1503610406470
2383, 1503610406437
2382, 1503610406404
2381, 1503610406371
2380, 1503610406338
2379, 1503610406305
2378, 1503610406272
2377, 1503610406239
2376, 1503610406206
2375, 1503610406173
2374, 1503610406140
2373, 1503610406107
2372, 1503610406074
2371, 1503610406041
2370, 1503610406008
2369, 1503610405975
2368, 1503610405942
2367, 1503610405909
2366, 1503610405876
2365, 1503610405843
2364, 1503610405810
2363, 1503610405777
2362, 1503610405744
2361, 1503610405711
2360, 1503610405678
2359, 1503610405645
2358, 1503610405612
2357, 1503610405579
2356, 1503610405546
2355, 1503610405513
2354, 1503610405480
2353, 1503610405447
2352, 1503610405414
2351, 1503610405381
2350, 1503610405348
2349, 1503610405315
2348, 1503610405282
2347, 1503610405249
2346, 1503610405216
2345, 1503610405183
2344, 1503610405150
2343, 1503610405117
2342, 1503610405084
2341, 1503610405051
2340, 1503610405018
2339, 1503610404985
2338, 1503610404952
2337, 1503610404919
2336, 1503610404886
2335, 1503610404853
2334, 1503610404820
2333, 1503610404787
2332, 1503610404754
2331, 1503610404721
2330, 1503610404688
2329, 1503610404655
2328, 1503610404622
2327, 1503610404589
2326, 1503610404556
2325, 1503610404523
2324, 1503610404490
2323, 1503610404457
2322, 1503610404424
2321, 1503610404391
2320, 1503610404358
2319, 1503610404325
2318, 1503610404292
2317, 1503610404259
2316, 1503610404226
2315, 1503610404193
2314, 1503610404160
2313, 1503610404127
2312, 1503610404094
2311, 1503610404061
2310, 1503610404028
2309, 1503610403995
2308, 1503610403962
2307, 1503610403929
2306, 1503610403896
2305, 1503610403863
2304, 1503610403830
2303, 1503610403797
2302, 1503610403764
2301, 1503610403731
2300, 1503610403698
2299, 1503610403665
2298, 1503610403632
2297, 1503610403599
2296, 1503610403566
2295, 1503610403533
2294, 1503610403500
2293, 1503610403467
2292, 1503610403434
2291, 1503610403401
2290, 1503610403368
2289, 1503610403335
2288, 1503610403302
2287, 1503610403269
2286, 1503610403236
2285, 1503610403203
2284, 1503610403170
2283, 1503610403137
2282, 1503610403104
2281, 1503610403071
2280, 1503610403038
2279, 1503610403005
2278, 1503610402972
2277, 1503610402939
2276, 1503610402906
2275, 1503610402873
2274, 1503610402840
2273, 1503610402807
2272, 1503610402774
2271, 1503610402741
2270, 1503610402708
2269, 1503610402675
2268, 1503610402642
2267, 1503610402609
2266, 1503610402576
2265, 1503610402543
2264, 1503610402510
2263, 1503610402477
2262, 1503610402444
2261, 1503610402411
2260, 1503610402378
2259, 1503610402345
2258, 1503610402312
2257, 1503610402279
2256, 1503610402246
2255, 1503610402213
2254, 1503610402180
2253, 1503610402147
2252, 1503610402114
2251, 1503610402081
2250, 1503610402048
2249, 1503610402015
2248, 1503610401982
2247, 1503610401949
2246, 1503610401916
2245, 1503610401883
2244, 1503610401850
2243, 1503610401817
2242, 1503610401784
2241, 1503610401751
2240, 1503610401718
2239, 1503610401685
2238, 1503610401652
2237, 1503610401619
2236, 1503610401586
2235, 1503610401553
2234, 1503610401520
2233, 1503610401487
2232, 1503610401454
2231, 1503610401421
2230, 1503610401388
2229, 1503610401355
2228, 1503610401322
2227, 1503610401289
2226, 1503610401256
2225, 1503610401223
2224, 1503610401190
2223, 1503610401157
2222, 1503610401124
2221, 1503610401091
2220, 1503610401058
2219, 1503610401025
2218, 1503610400992
2217, 1503610400959
2216, 1503610400926
2215, 1503610400893
2214, 1503610400860
2213, 1503610400827
2212, 1503610400794
2211, 1503610400761
2210, 1503610400728
2209, 1503610400695
2208, 1503610400662
2207, 1503610400629
2206, 1503610400596
2205, 1503610400563
2204, 1503610400530
2203, 1503610400497
2202, 1503610400464
2201, 1503610400431
2200, 1503610400398
2199, 1503610400365
2198, 1503610400332
2197, 1503610400299
2196, 1503610400266
2195, 1503610400233
2194, 1503610400200
2193, 1503610400167
2192, 1503610400134
2191, 1503610400101
2190, 1503610400068
2189, 1503610400035
2188, 1503610400002
2187, 1503610399969
2186, 1503610399936
2185, 1503610399903
2184, 1503610399870
2183, 1503610399837
2182, 1503610399804
2181, 1503610399771
2180, 1503610399738
2179, 1503610399705
2178, 1503610399672
2177, 1503610399639
2176, 1503610399606
2175, 1503610399573
2174, 1503610399540
2173, 1503610399507
2172, 1503610399474
2171, 1503610399441
2170, 1503610399408
2169, 1503610399375
2168, 1503610399342
2167, 1503610399309
2166, 1503610399276
2165, 1503610399243
2164, 1503610399210
2163, 1503610399177
2162, 1503610399144
2161, 1503610399111
2160, 1503610399078
2159, 1503610399045
2158, 1503610399012
2157, 1503610398979
2156, 1503610398946
2155, 1503610398913
2154, 1503610398880
2153, 1503610398847
2152, 1503610398814
2151, 1503610398781
2150, 1503610398748
2149, 1503610398715
2148, 1503610398682
2147, 1503610398649
2146, 1503610398616
2145, 1503610398583
2144, 1503610398550
2143, 1503610398517
2142, 1503610398484
2141, 1503610398451
2140, 1503610398418
2139, 1503610398385
2138, 1503610398352
2137, 1503610398319
2136, 1503610398286
2135, 1503610398253
2134, 1503610398220
2133, 1503610398187
2132, 1503610398154
2131, 1503610398121
2130, 1503610398088
2129, 1503610398055
2128, 1503610398022
2127, 1503610397989
2126, 1503610397956
2125, 1503610397923
2124, 1503610397890
2123, 1503610397857
2122, 1503610397824
2121, 1503610397791
2120, 1503610397758
2119, 1503610397725
2118, 1503610397692
2117, 1503610397659
2116, 1503610397626
2115, 1503610397593
2114, 1503610397560
2113, 1503610397527
2112, 1503610397494
2111, 1503610397461
2110, 1503610397428
2109, 1503610397395
2108, 1503610397362
2107, 1503610397329
2106, 1503610397296
2105, 1503610397263
2104, 1503610397230
2103, 1503610397197
2102, 1503610397164
2101, 1503610397131
2100, 1503610397098
2099, 1503610397065
2098, 1503610397032
2097, 1503610396999
2096, 1503610396966
2095, 1503610396933
2094, 1503610396900
2093, 1503610396867
2092, 1503610396834
2091, 1503610396801
2090, 1503610396768
2089, 1503610396735
2088, 1503610396702
2087, 1503610396669
2086, 1503610396636
2085, 1503610396603
2084, 1503610396570
2083, 1503610396537
2082, 1503610396504
2081, 1503610396471
2080, 1503610396438
2079, 1503610396405
2078, 1503610396372
2077, 1503610396339
2076, 1503610396306
2075, 1503610396273
2074, 1503610396240
2073, 1503610396207
2072, 1503610396174
2071, 1503610396141
2070, 1503610396108
2069, 1503610396075
2068, 1503610396042
2067, 1503610396009
2066, 1503610395976
2065, 1503610395943
2064, 1503610395910
2063, 1503610395877
2062, 1503610395844
2061, 1503610395811
2060, 1503610395778
2059, 1503610395745
2058, 1503610395712
2057, 1503610395679
2056, 1503610395646
2055, 1503610395613
2054, 1503610395580
2053, 1503610395547
2052, 1503610395514
2051, 1503610395481
2050, 1503610395448
2049, 1503610395415
2048, 1503610395382
2047, 1503610395349
2046, 1503610395316
2045, 1503610395283
2044, 1503610395250
2043, 1503610395217
2042, 1503610395184
2041, 1503610395151
2040, 1503610395118
2039, 1503610395085
2038, 1503610395052
2037, 1503610395019
2036, 1503610394986
2035, 1503610394953
2034, 1503610394920
2033, 1503610394887
2032, 1503610394854
2031, 1503610394821
2030, 1503610394788
2029, 1503610394755
2028, 1503610394722
2027, 1503610394689
2026, 1503610394656
2025, 1503610394623
2024, 1503610394590
2023, 1503610394557
2022, 1503610394524
2021, 1503610394491
2020, 1503610394458
2019, 1503610394425
2018, 1503610394392
2017, 1503610394359
2016, 1503610394326
2015, 1503610394293
2014, 1503610394260
2013, 1503610394227
2012, 1503610394194
2011, 1503610394161
2010, 1503610394128
2009, 1503610394095
2008, 1503610394062
2007, 1503610394029
2006, 1503610393996
2005, 1503610393963
2004, 1503610393930
2003, 1503610393897
2002, 1503610393864
2001, 1503610393831
2000, 1503610393798
1999, 1503610393765
1998, 1503610393732
1997, 1503610393699
1996, 1503610393666
1995, 1503610393633
1994, 1503610393600
1993, 1503610393567
1992, 1503610393534
1991, 1503610393501
1990, 1503610393468
1989, 1503610393435
1988, 1503610393402
1987, 1503610393369
1986, 1503610393336
1985, 1503610393303
1984, 1503610393270
1983, 1503610393237
1982, 1503610393204
1981, 1503610393171
1980, 1503610393138
1979, 1503610393105
1978, 1503610393072
1977, 1503610393039
1976, 1503610393006
1975, 1503610392973
1974, 1503610392940
1973, 1503610392907
1972, 1503610392874
1971, 1503610392841
1970, 1503610392808
1969, 1503610392775
1968, 1503610392742
1967, 1503610392709
1966, 1503610392676
1965, 1503610392643
1964, 1503610392610
1963, 1503610392577
1962, 1503610392544
1961, 1503610392511
1960, 1503610392478
1959, 1503610392445
1958, 1503610392412
1957, 1503610392379
1956, 1503610392346
1955, 1503610392313
1954, 1503610392280
1953, 1503610392247
1952, 1503610392214
1951, 1503610392181
1950, 1503610392148
1949, 1503610392115
1948, 1503610392082
1947, 1503610392049
1946, 1503610392016
1945, 1503610391983
1944, 1503610391950
1943, 1503610391917
1942, 1503610391884
1941, 1503610391851
1940, 1503610391818
1939, 1503610391785
1938, 1503610391752
1937, 1503610391719
1936, 1503610391686
1935, 1503610391653
1934, 1503610391620
1933, 1503610391587
1932, 1503610391554
1931, 1503610391521
1930, 1503610391488
1929, 1503610391455
1928, 1503610391422
1927, 1503610391389
1926, 1503610391356
1925, 1503610391323
1924, 1503610391290
1923, 1503610391257
1922, 1503610391224
1921, 1503610391191
1920, 1503610391158
1919, 1503610391125
1918, 1503610391092
1917, 1503610391059
1916, 1503610391026
1915, 1503610390993
1914, 1503610390960
1913, 1503610390927
1912, 1503610390894
1911, 1503610390861
1910, 1503610390828
1909, 1503610390795
1908, 1503610390762
1907, 1503610390729
1906, 1503610390696
1905, 1503610390663
1904, 1503610390630
1903, 1503610390597
1902, 1503610390564
1901, 1503610390531
1900, 1503610390498
1899, 1503610390465
1898, 1503610390432
1897, 1503610390399
1896, 1503610390366
1895, 1503610390333
1894, 1503610390300
1893, 1503610390267
1892, 1503610390234
1891, 1503610390201
1890, 1503610390168
1889, 1503610390135
1888, 1503610390102
1887, 1503610390069
1886, 1503610390036
1885, 1503610390003
1884, 1503610389970
1883, 1503610389937
1882, 1503610389904
1881, 1503610389871
1880, 1503610389838
1879, 1503610389805
1878, 1503610389772
1877, 1503610389739
1876, 1503610389706
1875, 1503610389673
1874, 1503610389640
1873, 1503610389607
1872, 1503610389574
1871, 1503610389541
1870, 1503610389508
1869, 1503610389475
1868, 1503610389442
1867, 1503610389409
1866, 1503610389376
1865, 1503610389343
1864, 1503610389310
1863, 1503610389277
1862, 1503610389244
1861, 1503610389211
1860, 1503610389178
1859, 1503610389145
1858, 1503610389112
1857, 1503610389079
1856, 1503610389046
1855, 1503610389013
1854, 1503610388980
1853, 1503610388947
1852, 1503610388914
1851, 1503610388881
1850, 1503610388848
1849, 1503610388815
1848, 1503610388782
1847, 1503610388749
1846, 1503610388716
1845, 1503610388683
1844, 1503610388650
1843, 1503610388617
1842, 1503610388584
1841, 1503610388551
1840, 1503610388518
1839, 1503610388485
1838, 1503610388452
1837, 1503610388419
1836, 1503610388386
1835, 1503610388353
1834, 1503610388320
1833, 1503610388287
1832, 1503610388254
1831, 1503610388221
1830, 1503610388188
1829, 1503610388155
1828, 1503610388122
1827, 1503610388089
1826, 1503610388056
1825, 1503610388023
1824, 1503610387990
1823, 1503610387957
1822, 1503610387924
1821, 1503610387891
1820, 1503610387858
1819, 1503610387825
1818, 1503610387792
1817, 1503610387759
1816, 1503610387726
1815, 1503610387693
1814, 1503610387660
1813, 1503610387627
1812, 1503610387594
1811, 1503610387561
1810, 1503610387528
1809, 1503610387495
1808, 1503610387462
1807, 1503610387429
1806, 1503610387396
1805, 1503610387363
1804, 1503610387330
1803, 1503610387297
1802, 1503610387264
1801, 1503610387231
1800, 1503610387198
1799, 1503610387165
1798, 1503610387132
1797, 1503610387099
1796, 1503610387066
1795, 1503610387033
1794, 1503610387000
1793, 1503610386967
1792, 1503610386934
1791, 1503610386901
1790, 1503610386868
1789, 1503610386835
1788, 1503610386802
1787, 1503610386769
1786, 1503610386736
1785, 1503610386703
1784, 1503610386670
1783, 1503610386637
1782, 1503610386604
1781, 1503610386571
1780, 1503610386538
1779, 1503610386505
1778, 1503610386472
1777, 1503610386439
1776, 1503610386406
1775, 1503610386373
1774, 1503610386340
1773, 1503610386307
1772, 1503610386274
1771, 1503610386241
1770, 1503610386208
1769, 1503610386175
1768, 1503610386142
1767, 1503610386109
1766, 1503610386076
1765, 1503610386043
1764, 1503610386010
1763, 1503610385977
1762, 1503610385944
1761, 1503610385911
1760, 1503610385878
1759, 1503610385845
1758, 1503610385812
1757, 1503610385779
1756, 1503610385746
1755, 1503610385713
1754, 1503610385680
1753, 1503610385647
1752, 1503610385614
1751, 1503610385581
1750, 1503610385548
1749, 1503610385515
1748, 1503610385482
1747, 1503610385449
1746, 1503610385416
1745, 1503610385383
